Date,Open,High,Low,Close,Volume,Adj Close
2006-01-03,52.369999,52.5,51.709999,52.5,246400,21.808343
2006-01-04,52.5,53.66,52.07,53.52,287200,22.232049
2006-01-05,53.0,54.02,52.959999,53.470001,157200,22.211279
2006-01-06,53.119999,54.060001,53.0,53.59,128000,22.261126
2006-01-09,53.59,54.299999,53.59,53.990002,134400,22.427286
2006-01-10,53.880001,54.75,53.75,54.369999,134800,22.585135
2006-01-11,53.869999,54.619999,53.869999,54.43,149400,22.61006
2006-01-12,54.299999,54.68,54.23,54.360001,102000,22.580982
2006-01-13,54.360001,54.5,53.950001,54.150002,85000,22.493749
2006-01-17,54.040001,54.470001,53.790001,53.810001,103200,22.352514
2006-01-18,53.689999,54.220001,53.509998,54.02,87600,22.439747
2006-01-19,54.220001,54.68,54.040001,54.16,109600,22.497902
2006-01-20,54.25,55.200001,54.16,55.060001,136600,22.87176
2006-01-23,55.080002,55.080002,53.639999,54.060001,161600,22.456363
2006-01-24,53.900002,54.799999,53.900002,54.779999,82200,22.755448
2006-01-25,54.790001,55.16,54.549999,55.0,129800,22.846836
2006-01-26,55.0,55.400002,54.639999,55.349998,161600,22.992224
2006-01-27,55.450001,55.549999,54.779999,54.779999,86200,22.755448
2006-01-30,54.580002,55.529999,54.580002,54.700001,151400,22.805479
2006-01-31,54.599998,56.439999,54.5,56.439999,176400,23.530917
2006-02-01,56.25,56.5,55.59,56.349998,150200,23.493395
2006-02-02,56.450001,56.869999,56.029999,56.119999,236400,23.397503
2006-02-03,55.0,55.450001,54.700001,55.360001,120000,23.080646
2006-02-06,55.360001,56.060001,55.060001,55.950001,87400,23.326628
2006-02-07,55.779999,55.779999,54.310001,54.509998,87000,22.726263
2006-02-08,54.400002,54.91,54.290001,54.91,71000,22.893032
2006-02-09,54.68,55.509998,54.580002,55.02,73600,22.938893
2006-02-10,56.02,57.450001,55.599998,56.959999,375600,23.747716
2006-02-13,56.830002,56.830002,54.07,54.419998,258200,22.688741
2006-02-14,54.349998,55.450001,54.330002,54.880001,229800,22.880525
2006-02-15,54.759998,55.299999,54.299999,54.880001,267600,22.880525
2006-02-16,54.75,54.84,53.77,54.25,174600,22.617865
2006-02-17,53.91,54.650002,53.380001,54.27,275400,22.626204
2006-02-21,53.970001,54.259998,53.709999,53.950001,142000,22.49279
2006-02-22,53.900002,54.169998,53.529999,53.919998,282800,22.480281
2006-02-23,53.950001,54.009998,53.419998,53.630001,144800,22.359376
2006-02-24,53.759998,53.919998,53.439999,53.779999,120000,22.421913
2006-02-27,53.619999,53.84,53.25,53.310001,188600,22.225962
2006-02-28,53.41,53.470001,52.450001,53.049999,169200,22.117562
2006-03-01,53.23,53.889999,53.049999,53.84,128600,22.446928
2006-03-02,53.869999,54.169998,53.720001,53.91,126000,22.476112
2006-03-03,53.779999,54.200001,53.299999,53.419998,182600,22.271821
2006-03-06,53.48,53.700001,52.700001,53.0,128600,22.096716
2006-03-07,53.0,53.52,52.48,53.290001,193200,22.217623
2006-03-08,53.220001,53.709999,53.0,53.59,157200,22.342698
2006-03-09,53.400002,54.0,53.360001,53.580002,254000,22.33853
2006-03-10,53.700001,54.299999,53.700001,54.299999,111600,22.638711
2006-03-13,54.169998,54.75,54.040001,54.209999,129400,22.601188
2006-03-14,54.200001,54.630001,53.990002,54.290001,285800,22.634542
2006-03-15,54.400002,54.790001,53.93,54.400002,130600,22.680404
2006-03-16,54.619999,55.330002,54.48,54.700001,113200,22.805479
2006-03-17,54.950001,55.200001,54.580002,55.0,142200,22.930554
2006-03-20,55.0,55.310001,54.450001,55.240002,209600,23.030616
2006-03-21,55.139999,55.25,54.34,54.720001,147000,22.813818
2006-03-22,54.610001,54.900002,54.18,54.84,173400,22.863847
2006-03-23,54.84,54.919998,54.43,54.689999,60800,22.801309
2006-03-24,54.779999,54.950001,54.360001,54.459999,114800,22.705418
2006-03-27,54.330002,54.779999,53.91,54.200001,68400,22.597019
2006-03-28,54.060001,54.200001,53.52,53.59,99200,22.342698
2006-03-29,53.509998,54.75,53.509998,54.68,299400,22.79714
2006-03-30,54.59,55.139999,54.150002,54.849998,268600,22.868016
2006-03-31,54.740002,55.34,54.610001,55.25,164600,23.034784
2006-04-03,55.25,55.330002,53.830002,54.150002,216600,22.576174
2006-04-04,54.25,55.200001,53.959999,55.009998,206400,22.934723
2006-04-05,54.799999,55.049999,53.32,53.57,170000,22.33436
2006-04-06,53.57,54.169998,53.099998,53.560001,116600,22.330191
2006-04-07,53.560001,54.529999,53.189999,53.580002,98200,22.33853
2006-04-10,53.43,53.450001,52.389999,52.52,272200,21.896595
2006-04-11,52.419998,53.0,52.360001,52.470001,109600,21.875749
2006-04-12,52.330002,52.91,52.330002,52.759998,59600,21.996655
2006-04-13,52.669998,52.880001,52.32,52.75,46200,21.992486
2006-04-17,53.0,54.220001,52.5,52.900002,126600,22.055025
2006-04-18,52.950001,53.490002,52.330002,53.0,245200,22.096716
2006-04-19,53.0,54.189999,52.91,53.799999,125000,22.430251
2006-04-20,53.900002,54.18,53.099998,53.450001,82400,22.28433
2006-04-21,51.700001,53.130001,51.02,52.299999,408600,21.804872
2006-04-24,52.400002,52.470001,51.77,51.810001,156800,21.600583
2006-04-25,51.709999,52.650002,51.380001,52.48,195400,21.879918
2006-04-26,52.32,53.02,52.049999,52.25,293400,21.867362
2006-04-27,52.150002,52.830002,51.599998,52.25,196400,21.867362
2006-04-28,52.200001,52.720001,52.049999,52.41,294000,21.934324
2006-05-01,52.41,52.950001,52.360001,52.540001,214200,21.988731
2006-05-02,52.540001,53.09,52.150002,52.779999,169600,22.089174
2006-05-03,52.700001,53.439999,52.52,53.049999,164000,22.202173
2006-05-04,52.919998,53.75,52.610001,53.419998,167800,22.357023
2006-05-05,53.43,54.169998,53.040001,53.970001,80400,22.587207
2006-05-08,54.040001,54.700001,53.849998,54.360001,123800,22.750427
2006-05-09,54.200001,54.380001,53.59,54.18,115200,22.675094
2006-05-10,54.119999,54.27,53.639999,53.880001,89200,22.54954
2006-05-11,53.799999,53.799999,53.16,53.209999,137600,22.269135
2006-05-12,53.0,53.650002,52.220001,52.91,177000,22.143581
2006-05-15,52.91,53.490002,52.110001,52.700001,219000,22.055694
2006-05-16,52.639999,52.810001,52.450001,52.669998,149600,22.043137
2006-05-17,52.57,52.73,51.91,52.279999,117800,21.879917
2006-05-18,52.369999,52.639999,51.799999,52.0,125600,21.762733
2006-05-19,52.060001,52.549999,51.77,52.200001,126200,21.846436
2006-05-22,52.07,52.630001,51.349998,52.290001,331600,21.884103
2006-05-23,52.299999,52.349998,51.240002,51.610001,292200,21.599513
2006-05-24,51.5,51.970001,50.400002,51.700001,353800,21.637179
2006-05-25,51.830002,52.0,51.25,51.610001,141400,21.599513
2006-05-26,51.630001,52.200001,51.610001,51.73,105200,21.649734
2006-05-30,51.700001,52.150002,51.360001,51.57,125600,21.582772
2006-05-31,51.619999,52.68,51.349998,52.599998,316200,22.013841
2006-06-01,52.5,52.82,52.110001,52.549999,266600,21.992916
2006-06-02,52.66,52.75,51.759998,52.630001,290400,22.026398
2006-06-05,52.630001,53.099998,52.290001,52.610001,406000,22.018027
2006-06-06,52.540001,53.02,52.09,52.419998,232000,21.938508
2006-06-07,52.380001,53.02,52.380001,52.610001,200800,22.018027
2006-06-08,51.900002,52.299999,50.709999,52.060001,286400,21.787845
2006-06-09,52.099998,52.34,51.43,51.75,133000,21.658105
2006-06-12,51.73,51.990002,50.869999,51.259998,154000,21.453032
2006-06-13,51.189999,51.66,50.02,50.450001,223800,21.114037
2006-06-14,50.299999,50.959999,49.91,50.200001,225200,21.009408
2006-06-15,50.189999,51.25,49.779999,50.84,266600,21.277257
2006-06-16,50.889999,51.099998,50.080002,50.68,164000,21.210295
2006-06-19,50.799999,50.950001,49.869999,50.099998,193600,20.967556
2006-06-20,50.07,50.549999,49.610001,50.169998,146800,20.996852
2006-06-21,50.07,50.709999,49.900002,50.560001,257000,21.160074
2006-06-22,50.5,50.68,49.91,50.02,248600,20.934076
2006-06-23,50.009998,50.82,49.669998,50.509998,172600,21.139147
2006-06-26,50.650002,51.459999,50.549999,51.240002,250000,21.444663
2006-06-27,51.25,51.639999,50.75,50.75,235400,21.239591
2006-06-28,51.0,51.130001,50.599998,51.099998,127600,21.38607
2006-06-29,51.349998,52.419998,51.349998,52.380001,291200,21.921769
2006-06-30,52.5,53.0,49.610001,49.610001,3897200,20.762485
2006-07-03,50.360001,51.27,50.150002,50.900002,686000,21.302368
2006-07-05,50.400002,50.630001,49.869999,50.470001,450600,21.122407
2006-07-06,51.349998,51.349998,50.16,50.48,462000,21.126592
2006-07-07,50.279999,50.509998,49.130001,49.25,275600,20.61182
2006-07-10,49.279999,50.740002,49.279999,50.16,375000,20.992667
2006-07-11,49.959999,50.48,49.209999,50.41,348800,21.097296
2006-07-12,50.209999,50.419998,48.75,48.77,242800,20.410933
2006-07-13,48.52,48.639999,47.529999,47.619999,335200,19.929641
2006-07-14,47.439999,48.310001,46.860001,47.759998,361600,19.988233
2006-07-17,47.759998,47.869999,47.18,47.290001,271600,19.791532
2006-07-18,47.540001,48.529999,47.009998,47.799999,343200,20.004974
2006-07-19,47.650002,49.59,47.650002,49.23,253000,20.603449
2006-07-20,50.650002,51.599998,49.5,49.73,593400,20.812706
2006-07-21,49.099998,49.16,47.860001,48.709999,430400,20.385822
2006-07-24,49.150002,50.450001,49.150002,50.34,391600,21.068
2006-07-25,50.5,51.360001,49.93,50.900002,350400,21.302368
2006-07-26,50.650002,50.91,49.650002,50.470001,304600,21.122407
2006-07-27,50.720001,51.099998,49.939999,50.349998,257000,21.072184
2006-07-28,50.98,51.900002,50.919998,51.619999,304800,21.698507
2006-07-31,51.5,51.919998,51.299999,51.5,303000,21.648066
2006-08-01,51.349998,51.549999,50.389999,50.919998,268200,21.404261
2006-08-02,51.080002,51.939999,50.950001,51.200001,200800,21.521961
2006-08-03,51.099998,52.259998,51.040001,51.889999,224800,21.812002
2006-08-04,52.349998,52.740002,51.02,52.189999,345600,21.938107
2006-08-07,51.970001,51.990002,51.189999,51.59,181800,21.685897
2006-08-08,51.529999,51.650002,50.880001,51.09,342800,21.475722
2006-08-09,51.09,51.5,50.580002,50.709999,363000,21.315988
2006-08-10,50.25,50.950001,50.099998,50.59,252800,21.265547
2006-08-11,50.369999,50.68,49.869999,50.529999,194800,21.240325
2006-08-14,50.599998,51.209999,50.290001,50.459999,155400,21.2109
2006-08-15,50.950001,51.540001,50.639999,51.540001,216600,21.66488
2006-08-16,51.75,52.73,51.599998,52.599998,305000,22.110451
2006-08-17,52.5,52.75,52.0,52.150002,143600,21.921294
2006-08-18,52.41,52.470001,51.419998,52.110001,129400,21.90448
2006-08-21,51.900002,52.130001,51.240002,51.470001,132000,21.635456
2006-08-22,51.330002,51.709999,51.169998,51.619999,112600,21.698507
2006-08-23,51.299999,51.810001,50.529999,51.009998,312400,21.442093
2006-08-24,51.0,51.25,50.119999,50.740002,172200,21.3286
2006-08-25,50.549999,51.099998,50.279999,50.419998,171200,21.194086
2006-08-28,50.419998,51.650002,50.400002,51.34,226000,21.58081
2006-08-29,51.450001,52.259998,51.200001,51.93,285000,21.828817
2006-08-30,52.139999,52.650002,51.77,51.900002,267000,21.816207
2006-08-31,51.950001,52.150002,51.41,51.5,296400,21.648066
2006-09-01,51.700001,52.060001,51.400002,51.509998,201200,21.652268
2006-09-05,51.380001,52.240002,51.32,51.810001,166400,21.778375
2006-09-06,51.560001,51.560001,50.759998,50.790001,208600,21.349617
2006-09-07,50.5,50.91,50.049999,50.049999,273200,21.038557
2006-09-08,49.799999,50.380001,49.349998,49.990002,345400,21.013337
2006-09-11,49.75,50.299999,49.439999,49.93,186600,20.988115
2006-09-12,50.099998,51.060001,50.029999,50.849998,201600,21.374837
2006-09-13,50.669998,51.5,50.5,51.240002,265200,21.538775
2006-09-14,51.049999,51.049999,50.099998,50.82,239800,21.362227
2006-09-15,50.950001,50.959999,50.16,50.16,505400,21.084796
2006-09-18,49.990002,50.349998,49.580002,50.16,174400,21.084796
2006-09-19,50.310001,50.369999,48.900002,50.0,225800,21.01754
2006-09-20,50.349998,50.689999,49.98,50.650002,442600,21.290768
2006-09-21,50.849998,50.849998,49.790001,50.299999,351200,21.143644
2006-09-22,50.099998,50.32,49.23,49.59,356800,20.845196
2006-09-25,49.75,50.759998,49.34,50.59,336800,21.265547
2006-09-26,50.700001,51.790001,50.610001,51.77,378200,21.761561
2006-09-27,51.599998,52.150002,51.259998,51.490002,398400,21.643863
2006-09-28,51.48,52.099998,51.0,51.950001,289200,21.837224
2006-09-29,51.75,51.990002,50.880001,50.880001,399600,21.387449
2006-10-02,50.57,51.150002,50.119999,50.220001,342800,21.110017
2006-10-03,50.049999,50.75,49.389999,50.060001,626800,21.042761
2006-10-04,49.990002,51.650002,49.93,51.52,347600,21.656473
2006-10-05,51.360001,52.400002,51.169998,52.240002,262800,21.959126
2006-10-06,52.040001,52.75,51.799999,52.439999,251000,22.043195
2006-10-09,52.119999,53.119999,52.0,52.91,233200,22.24076
2006-10-10,52.91,53.25,52.419998,53.099998,201600,22.320626
2006-10-11,52.970001,53.849998,52.939999,53.630001,335200,22.543413
2006-10-12,54.169998,54.57,53.529999,54.23,390200,22.795623
2006-10-13,54.299999,55.130001,54.049999,54.93,266400,23.089869
2006-10-16,55.099998,55.52,54.700001,54.950001,182600,23.098276
2006-10-17,54.610001,55.049999,54.0,54.950001,230800,23.098276
2006-10-18,55.0,55.189999,54.529999,55.02,344000,23.127701
2006-10-19,55.150002,56.75,54.639999,56.110001,461200,23.585883
2006-10-20,56.240002,56.240002,55.009998,56.049999,369400,23.560661
2006-10-23,55.959999,56.75,55.43,55.759998,365000,23.438759
2006-10-24,55.419998,55.900002,54.77,55.389999,293000,23.28323
2006-10-25,55.25,55.91,54.990002,55.810001,313600,23.459778
2006-10-26,56.0,56.0,55.119999,55.810001,218200,23.459778
2006-10-27,55.5,55.84,54.880001,55.130001,294600,23.17394
2006-10-30,54.700001,55.490002,54.299999,55.25,177000,23.317431
2006-10-31,55.189999,55.380001,54.650002,54.91,243400,23.173939
2006-11-01,54.98,55.029999,53.759998,53.860001,345200,22.730803
2006-11-02,55.200001,55.450001,54.580002,55.060001,470400,23.237245
2006-11-03,55.139999,55.959999,54.68,55.810001,537600,23.553771
2006-11-06,55.990002,56.52,55.52,56.349998,351400,23.781669
2006-11-07,56.0,57.049999,56.0,56.669998,407600,23.91672
2006-11-08,56.669998,57.450001,55.970001,57.290001,400200,24.178383
2006-11-09,57.34,57.41,56.07,56.59,309400,23.882958
2006-11-10,56.470001,57.150002,56.41,57.060001,247600,24.081315
2006-11-13,56.950001,58.720001,56.799999,58.34,606000,24.621519
2006-11-14,58.59,59.939999,58.07,59.880001,661000,25.271453
2006-11-15,59.950001,60.139999,59.540001,60.09,474000,25.36008
2006-11-16,59.990002,60.049999,59.43,59.959999,252800,25.305215
2006-11-17,59.959999,60.689999,59.32,60.5,264800,25.533114
2006-11-20,60.509998,60.740002,60.060001,60.610001,392600,25.579539
2006-11-21,60.610001,60.73,59.950001,60.549999,260800,25.554216
2006-11-22,60.779999,60.939999,59.950001,60.360001,348400,25.47403
2006-11-24,59.700001,60.900002,59.700001,60.450001,138400,25.512013
2006-11-27,60.099998,60.400002,59.41,60.009998,476000,25.326317
2006-11-28,59.759998,60.41,59.419998,60.349998,334600,25.469809
2006-11-29,60.560001,61.0,60.200001,60.860001,210600,25.685047
2006-11-30,60.0,61.27,60.0,61.259998,372400,25.85386
2006-12-01,61.09,61.09,59.91,60.5,395400,25.533114
2006-12-04,60.700001,62.25,60.540001,61.759998,487000,26.064878
2006-12-05,61.77,62.290001,61.32,61.43,287600,25.925607
2006-12-06,61.200001,61.34,60.439999,60.580002,375800,25.566878
2006-12-07,60.52,60.98,60.130001,60.380001,284800,25.482471
2006-12-08,60.130001,60.419998,59.59,60.029999,277200,25.334757
2006-12-11,60.110001,60.279999,59.549999,59.700001,421800,25.195487
2006-12-12,59.599998,59.799999,58.959999,59.299999,352000,25.026672
2006-12-13,59.75,59.98,59.34,59.75,254000,25.216588
2006-12-14,59.860001,60.299999,59.779999,60.099998,220000,25.3643
2006-12-15,60.18,60.419998,59.759998,59.77,458800,25.225029
2006-12-18,59.939999,60.0,58.41,58.57,330600,24.718587
2006-12-19,58.299999,58.959999,57.84,58.77,444600,24.802994
2006-12-20,58.950001,59.419998,58.599998,59.220001,526400,24.99291
2006-12-21,59.450001,59.790001,58.5,58.799999,271800,24.815655
2006-12-22,58.77,58.849998,58.080002,58.25,179600,24.583536
2006-12-26,58.049999,59.34,58.049999,59.209999,166800,24.988689
2006-12-27,59.610001,60.400002,59.5,60.400002,227400,25.490912
2006-12-28,60.25,60.48,59.869999,59.869999,229200,25.267232
2006-12-29,59.869999,60.130001,58.77,59.040001,233000,24.916944
2007-01-03,59.5,60.700001,58.970001,59.5,406200,25.111079
2007-01-04,59.349998,59.759998,58.349998,59.360001,375000,25.051995
2007-01-05,59.110001,59.110001,57.759998,58.200001,287800,24.562434
2007-01-08,58.009998,58.490002,57.450001,58.43,273800,24.659502
2007-01-09,58.529999,58.59,57.490002,58.560001,248400,24.714367
2007-01-10,58.099998,58.639999,58.049999,58.619999,166400,24.739688
2007-01-11,58.610001,59.919998,58.450001,59.82,259000,25.246131
2007-01-12,59.77,60.439999,59.73,60.369999,145200,25.478249
2007-01-16,60.950001,62.0,60.610001,61.049999,391200,25.765233
2007-01-17,60.799999,61.150002,60.610001,60.889999,282600,25.697708
2007-01-18,60.709999,60.849998,59.91,60.119999,304400,25.372741
2007-01-19,59.75,61.0,59.43,60.700001,275000,25.617522
2007-01-22,60.939999,60.939999,59.689999,59.860001,173200,25.263012
2007-01-23,60.0,61.700001,59.970001,61.310001,313400,25.874963
2007-01-24,61.700001,61.799999,60.48,60.790001,551400,25.655505
2007-01-25,60.720001,61.16,60.459999,60.889999,361600,25.697708
2007-01-26,61.049999,61.380001,60.5,61.0,491200,25.744132
2007-01-29,60.790001,61.779999,60.689999,61.360001,548200,25.989799
2007-01-30,61.549999,61.619999,61.110001,61.25,193200,25.943207
2007-01-31,61.080002,61.57,60.610001,61.009998,378600,25.841551
2007-02-01,61.299999,61.98,61.299999,61.5,359800,26.049097
2007-02-02,61.75,61.849998,61.380001,61.619999,280800,26.099924
2007-02-05,61.619999,61.73,61.0,61.23,264400,25.934735
2007-02-06,61.310001,61.700001,60.869999,61.139999,363600,25.896614
2007-02-07,61.169998,61.189999,60.66,60.84,384800,25.769546
2007-02-08,60.599998,61.52,60.299999,61.25,245800,25.943207
2007-02-09,68.68,70.339996,65.099998,66.0,2963200,27.955129
2007-02-12,66.080002,66.199997,64.830002,65.610001,674200,27.78994
2007-02-13,65.220001,65.949997,64.809998,65.779999,510000,27.861944
2007-02-14,65.760002,66.589996,65.389999,66.300003,487200,28.082199
2007-02-15,66.089996,66.089996,65.0,65.059998,409600,27.556979
2007-02-16,65.050003,65.480003,64.290001,65.279999,383000,27.650163
2007-02-20,65.160004,65.870003,64.970001,65.849998,405200,27.891594
2007-02-21,65.699997,65.959999,65.199997,65.550003,492200,27.764527
2007-02-22,65.349998,65.900002,64.980003,65.349998,511400,27.679812
2007-02-23,65.279999,67.050003,65.080002,66.790001,570600,28.289744
2007-02-26,67.050003,67.75,66.519997,67.080002,435600,28.412577
2007-02-27,65.370003,66.269997,65.18,65.599998,868600,27.785703
2007-02-28,65.160004,66.349998,64.589996,65.790001,638400,27.866181
2007-03-01,65.0,66.540001,64.5,66.300003,720200,28.082199
2007-03-02,66.199997,66.699997,65.699997,65.779999,838200,27.861944
2007-03-05,65.139999,66.040001,64.839996,65.449997,444200,27.722168
2007-03-06,66.080002,66.550003,65.75,66.0,491000,27.955129
2007-03-07,65.879997,66.610001,65.629997,66.139999,667400,28.014427
2007-03-08,66.75,67.349998,66.169998,66.349998,490000,28.103375
2007-03-09,66.900002,67.150002,66.0,66.440002,208800,28.141497
2007-03-12,66.440002,67.449997,65.709999,67.220001,279800,28.471876
2007-03-13,66.870003,67.07,65.059998,65.129997,550000,27.586628
2007-03-14,64.989998,66.010002,64.5,65.75,341800,27.849238
2007-03-15,65.849998,66.339996,65.519997,66.099998,199600,27.997484
2007-03-16,66.089996,66.379997,65.410004,65.639999,511400,27.802646
2007-03-19,65.93,66.440002,65.730003,66.269997,170200,28.069489
2007-03-20,66.120003,66.720001,66.120003,66.5,153800,28.16691
2007-03-21,66.660004,68.349998,66.449997,68.18,300400,28.878495
2007-03-22,68.260002,68.260002,66.989998,67.400002,394400,28.548117
2007-03-23,67.669998,68.559998,67.300003,68.510002,279800,29.018272
2007-03-26,68.25,68.25,67.360001,68.239998,271000,28.903908
2007-03-27,68.160004,68.18,67.18,67.440002,454400,28.56506
2007-03-28,67.230003,67.760002,66.669998,67.360001,180600,28.531174
2007-03-29,67.730003,68.339996,66.43,67.260002,314800,28.488818
2007-03-30,67.449997,67.75,66.389999,66.93,240600,28.349042
2007-04-02,67.199997,67.349998,66.68,67.230003,176600,28.476112
2007-04-03,67.489998,68.470001,67.389999,67.900002,283600,28.759898
2007-04-04,67.75,68.589996,67.669998,68.339996,144800,28.946264
2007-04-05,68.459999,68.760002,68.169998,68.599998,144400,29.056391
2007-04-09,68.550003,68.75,68.050003,68.349998,169600,28.9505
2007-04-10,68.209999,68.809998,68.160004,68.449997,199400,28.992856
2007-04-11,68.599998,68.620003,67.360001,67.870003,214400,28.747192
2007-04-12,67.620003,69.150002,67.510002,69.080002,353600,29.259702
2007-04-13,69.059998,69.980003,68.790001,69.349998,169800,29.374063
2007-04-16,69.75,70.459999,69.660004,70.300003,190200,29.776449
2007-04-17,70.410004,70.5,69.720001,70.139999,212200,29.708677
2007-04-18,69.800003,70.010002,68.800003,69.0,290400,29.225816
2007-04-19,73.349998,75.970001,72.220001,74.639999,1685400,31.614709
2007-04-20,75.489998,76.980003,74.209999,75.120003,770000,31.81802
2007-04-23,74.010002,75.68,73.620003,75.010002,602200,31.771428
2007-04-24,75.349998,75.589996,74.120003,75.550003,327200,32.000152
2007-04-25,76.150002,76.419998,75.18,76.0,359800,32.190754
2007-04-26,75.900002,76.209999,75.129997,75.790001,271800,32.101807
2007-04-27,75.510002,76.580002,74.970001,75.800003,298400,32.106043
2007-04-30,75.599998,75.599998,73.129997,73.25,404800,31.132746
2007-05-01,73.580002,74.970001,73.080002,74.459999,350200,31.647021
2007-05-02,74.709999,75.550003,73.620003,74.709999,435000,31.753276
2007-05-03,74.699997,75.0,74.059998,74.660004,210000,31.732027
2007-05-04,74.650002,74.989998,74.190002,74.989998,358000,31.872281
2007-05-07,75.0,75.440002,74.540001,74.970001,391000,31.863782
2007-05-08,74.449997,75.0,73.669998,74.980003,349000,31.868033
2007-05-09,74.599998,75.440002,74.230003,75.279999,268800,31.995537
2007-05-10,37.119999,37.119999,35.990002,36.029999,545500,30.626971
2007-05-11,36.209999,37.290001,36.189999,37.209999,439900,31.630019
2007-05-14,37.259998,37.470001,36.59,36.73,349000,31.222
2007-05-15,36.77,37.23,36.240002,36.419998,513400,30.958486
2007-05-16,36.639999,36.799999,36.150002,36.650002,326600,31.153999
2007-05-17,36.630001,37.099998,36.279999,36.720001,506900,31.213501
2007-05-18,36.880001,37.0,36.540001,36.810001,316300,31.290005
2007-05-21,36.700001,37.34,36.599998,36.84,349100,31.315505
2007-05-22,37.09,37.5,36.799999,37.360001,283800,31.757527
2007-05-23,37.610001,37.799999,37.18,37.27,458900,31.681023
2007-05-24,37.310001,37.400002,36.580002,36.860001,426000,31.332506
2007-05-25,37.060001,37.610001,37.060001,37.099998,254900,31.536514
2007-05-29,37.169998,37.549999,37.009998,37.279999,234400,31.689522
2007-05-30,37.360001,37.779999,37.09,37.66,253200,32.012538
2007-05-31,37.880001,38.310001,37.509998,37.560001,371000,31.927536
2007-06-01,37.810001,38.150002,37.75,38.049999,705100,32.344054
2007-06-04,37.959999,38.299999,37.59,38.049999,228000,32.344054
2007-06-05,37.810001,38.110001,37.509998,37.889999,233400,32.208047
2007-06-06,37.740002,37.889999,37.240002,37.450001,259100,31.834031
2007-06-07,37.34,37.66,36.689999,36.799999,281600,31.281503
2007-06-08,36.650002,37.119999,36.509998,36.98,187200,31.43451
2007-06-11,36.799999,37.509998,36.099998,36.740002,232900,31.230502
2007-06-12,36.450001,36.740002,35.73,35.98,327900,30.58447
2007-06-13,36.099998,36.740002,35.860001,36.459999,239800,30.992489
2007-06-14,36.619999,37.439999,36.5,37.200001,256900,31.62152
2007-06-15,38.099998,38.169998,37.57,37.919998,612500,32.233548
2007-06-18,37.939999,38.0,37.060001,37.09,214000,31.528015
2007-06-19,36.869999,37.130001,36.220001,37.060001,283800,31.502515
2007-06-20,37.23,37.23,36.0,36.099998,335000,30.686473
2007-06-21,35.919998,36.290001,35.48,36.200001,211800,30.77148
2007-06-22,36.139999,36.139999,35.48,35.810001,552800,30.439964
2007-06-25,35.689999,35.919998,35.060001,35.360001,342100,30.057445
2007-06-26,35.610001,35.849998,35.02,35.459999,413700,30.142448
2007-06-27,35.25,36.0,35.0,35.939999,267000,30.550467
2007-06-28,36.099998,36.560001,35.919998,36.119999,201100,30.703475
2007-06-29,36.369999,36.779999,35.43,35.560001,297800,30.227454
2007-07-02,35.860001,36.91,35.82,36.599998,262100,31.111494
2007-07-03,36.709999,36.950001,36.59,36.790001,81800,31.273004
2007-07-05,36.889999,37.0,36.299999,36.93,238800,31.392009
2007-07-06,36.869999,37.130001,36.68,37.080002,155900,31.519516
2007-07-09,37.209999,37.209999,36.529999,36.779999,211500,31.264502
2007-07-10,36.610001,36.799999,36.349998,36.389999,307100,30.932986
2007-07-11,36.400002,37.029999,36.360001,36.860001,227500,31.332506
2007-07-12,37.200001,37.630001,36.799999,37.630001,279200,31.987038
2007-07-13,37.470001,37.91,37.169998,37.91,274800,32.225049
2007-07-16,37.73,38.009998,37.259998,37.560001,491200,31.927536
2007-07-17,37.720001,38.59,37.720001,38.279999,438600,32.539563
2007-07-18,37.939999,39.419998,37.580002,39.189999,613300,33.3131
2007-07-19,37.25,38.150002,36.580002,37.900002,1641300,32.21655
2007-07-20,37.82,38.150002,37.540001,37.950001,743600,32.259051
2007-07-23,38.099998,38.34,38.0,38.07,518500,32.361055
2007-07-24,37.599998,37.950001,36.919998,37.110001,386300,31.545017
2007-07-25,37.310001,37.48,36.060001,36.59,448800,31.102995
2007-07-26,36.0,36.68,35.349998,35.91,689900,30.524967
2007-07-27,35.619999,35.919998,34.990002,35.380001,553500,30.183714
2007-07-30,35.43,36.220001,35.0,36.07,521200,30.772372
2007-07-31,36.369999,37.369999,35.939999,36.400002,672200,31.053907
2007-08-01,36.25,37.200001,35.790001,36.98,800300,31.54872
2007-08-02,37.09,37.32,36.66,37.040001,511500,31.599909
2007-08-03,36.880001,37.16,36.09,36.18,654900,30.866217
2007-08-06,36.279999,36.669998,34.950001,36.610001,600100,31.233063
2007-08-07,36.330002,36.75,35.5,36.34,585400,31.002718
2007-08-08,36.799999,39.490002,36.73,38.91,967000,33.19526
2007-08-09,38.150002,40.029999,37.73,37.970001,783000,32.393319
2007-08-10,37.450001,39.529999,37.060001,38.84,585900,33.135541
2007-08-13,39.400002,39.5,37.549999,38.27,432600,32.649257
2007-08-14,38.27,38.509998,37.259998,37.299999,181600,31.821721
2007-08-15,37.150002,37.790001,35.799999,35.82,372000,30.55909
2007-08-16,35.689999,37.66,35.43,37.490002,644300,31.983818
2007-08-17,39.900002,40.09,36.66,37.580002,944000,32.060599
2007-08-20,37.619999,37.830002,36.189999,36.669998,437200,31.284249
2007-08-21,36.540001,36.73,36.009998,36.450001,471900,31.096562
2007-08-22,36.75,37.23,36.23,36.549999,466200,31.181874
2007-08-23,36.84,37.02,35.75,36.040001,393800,30.74678
2007-08-24,35.990002,36.599998,35.799999,36.599998,267900,31.22453
2007-08-27,36.419998,36.419998,35.619999,35.73,287300,30.482308
2007-08-28,35.5,35.619999,34.84,34.900002,255600,29.774213
2007-08-29,35.119999,35.93,34.939999,35.720001,251400,30.473778
2007-08-30,35.66,36.209999,35.220001,36.07,310800,30.772372
2007-08-31,36.529999,36.66,36.0,36.330002,192200,30.994188
2007-09-04,36.099998,36.650002,36.0,36.040001,330700,30.74678
2007-09-05,35.900002,36.02,35.310001,35.48,333000,30.269026
2007-09-06,35.52,35.66,34.66,34.700001,551100,29.603586
2007-09-07,34.27,34.650002,33.919998,34.200001,535500,29.177022
2007-09-10,34.450001,34.880001,33.549999,34.119999,642600,29.10877
2007-09-11,34.290001,35.09,34.16,34.759998,453400,29.654772
2007-09-12,34.630001,34.82,34.07,34.169998,397100,29.151426
2007-09-13,34.400002,34.5,33.91,33.91,262800,28.929613
2007-09-14,33.75,34.400002,33.369999,34.110001,325200,29.10024
2007-09-17,33.959999,34.189999,33.740002,33.779999,638100,28.818706
2007-09-18,33.889999,35.080002,33.700001,34.919998,378100,29.791272
2007-09-19,35.34,36.310001,35.099998,35.990002,389500,30.704124
2007-09-20,35.900002,36.110001,35.740002,36.02,322000,30.729717
2007-09-21,36.419998,37.02,36.299999,36.619999,571900,31.241593
2007-09-24,36.540001,36.77,36.23,36.549999,262600,31.181874
2007-09-25,36.299999,36.77,35.950001,36.459999,169200,31.105092
2007-09-26,36.66,37.419998,36.439999,37.310001,241500,31.830254
2007-09-27,37.41,37.610001,37.200001,37.57,138000,32.052066
2007-09-28,37.57,38.220001,37.369999,37.869999,480000,32.308004
2007-10-01,37.790001,38.869999,37.75,38.330002,326600,32.700446
2007-10-02,38.439999,39.349998,38.439999,39.259998,252800,33.493854
2007-10-03,39.029999,39.34,38.68,39.02,197200,33.289104
2007-10-04,39.150002,39.259998,38.790001,38.990002,161700,33.263512
2007-10-05,39.470001,40.110001,39.259998,39.93,277700,34.065452
2007-10-08,39.799999,40.02,39.380001,39.490002,167400,33.690076
2007-10-09,39.52,40.110001,39.060001,39.650002,275100,33.826577
2007-10-10,39.5,39.5,38.5,38.790001,289600,33.092885
2007-10-11,38.869999,39.689999,38.389999,38.57,254600,32.905196
2007-10-12,38.509998,39.599998,38.389999,39.59,196800,33.775388
2007-10-15,39.540001,39.549999,38.529999,39.009998,290500,33.280571
2007-10-16,38.98,39.439999,38.869999,39.09,267600,33.348823
2007-10-17,39.790001,39.860001,38.540001,39.150002,394100,33.400012
2007-10-18,40.599998,42.470001,40.599998,41.869999,635500,35.720522
2007-10-19,41.77,42.07,40.970001,41.0,770900,34.9783
2007-10-22,40.639999,44.279999,40.639999,44.16,1026400,37.674188
2007-10-23,44.0,44.73,43.400002,44.439999,768400,37.913063
2007-10-24,43.990002,44.290001,42.310001,43.189999,532000,36.846652
2007-10-25,43.290001,43.689999,42.790001,43.509998,405300,37.119653
2007-10-26,44.0,44.5,43.59,44.389999,210200,37.870408
2007-10-29,44.299999,44.540001,42.310001,43.34,395400,37.083226
2007-10-30,43.16,44.299999,43.07,43.360001,453000,37.100339
2007-10-31,43.599998,44.75,42.75,44.700001,535200,38.24689
2007-11-01,44.23,44.450001,42.700001,42.82,575300,36.638295
2007-11-02,43.27,43.509998,42.09,42.959999,232200,36.758083
2007-11-05,42.299999,43.689999,41.700001,43.34,357300,37.083226
2007-11-06,43.5,44.0,42.580002,43.93,244500,37.58805
2007-11-07,43.5,43.5,41.639999,41.740002,389100,35.714211
2007-11-08,42.16,42.369999,41.450001,42.169998,485300,36.082131
2007-11-09,41.509998,42.150002,41.0,41.619999,393600,35.611532
2007-11-12,41.52,42.650002,41.200001,41.830002,390300,35.791218
2007-11-13,42.310001,43.130001,41.849998,42.900002,332100,36.706747
2007-11-14,43.259998,43.259998,41.689999,42.32,354400,36.210477
2007-11-15,42.040001,42.040001,40.900002,41.52,365200,35.52597
2007-11-16,41.599998,42.220001,40.93,41.439999,393200,35.457518
2007-11-19,41.0,41.369999,40.360001,40.82,354600,34.927025
2007-11-20,41.119999,41.439999,39.830002,40.959999,400500,35.046813
2007-11-21,40.639999,42.130001,40.52,40.990002,408700,35.072484
2007-11-23,41.400002,42.459999,41.09,42.0,123200,35.936674
2007-11-26,41.970001,42.860001,40.490002,40.490002,368600,34.644667
2007-11-27,40.669998,41.59,40.419998,40.889999,462000,34.986919
2007-11-28,42.0,43.509998,41.400002,43.459999,646500,37.185901
2007-11-29,43.099998,43.349998,42.119999,42.32,451300,36.210477
2007-11-30,42.84,43.240002,41.860001,42.209999,473300,36.116357
2007-12-03,42.060001,42.34,41.349998,41.419998,303300,35.440405
2007-12-04,41.110001,41.439999,40.610001,40.869999,243100,34.969806
2007-12-05,41.450001,42.259998,41.310001,42.150002,210800,36.065021
2007-12-06,42.150002,43.369999,42.150002,43.34,255000,37.083226
2007-12-07,43.630001,43.77,43.040001,43.450001,169500,37.177346
2007-12-10,43.459999,43.75,43.02,43.560001,251900,37.271466
2007-12-11,43.869999,44.009998,42.25,42.439999,311600,36.313153
2007-12-12,43.549999,44.0,42.459999,43.009998,264200,36.800864
2007-12-13,42.650002,43.0,41.720001,42.470001,374500,36.338824
2007-12-14,42.0,42.529999,41.610001,41.720001,272600,35.697098
2007-12-17,41.389999,41.43,40.369999,40.389999,365200,34.559101
2007-12-18,40.810001,41.029999,40.049999,40.82,485700,34.927025
2007-12-19,40.880001,41.09,39.689999,39.880001,506900,34.122729
2007-12-20,40.25,40.599998,39.709999,40.459999,444900,34.618996
2007-12-21,41.18,42.740002,41.029999,42.41,824900,36.287485
2007-12-24,42.68,43.509998,42.41,43.400002,141500,37.134565
2007-12-26,43.400002,43.490002,42.560001,43.209999,282900,36.971992
2007-12-27,42.709999,43.189999,41.599998,41.619999,201800,35.611532
2007-12-28,41.34,42.439999,41.34,41.689999,198400,35.671426
2007-12-31,41.41,41.490002,40.619999,40.91,226500,35.004032
2008-01-02,40.68,41.02,39.630001,39.959999,317100,34.191178
2008-01-03,40.110001,40.369999,39.290001,39.419998,436700,33.729134
2008-01-04,39.0,42.720001,39.0,40.41,943500,34.576215
2008-01-07,40.610001,40.849998,39.439999,39.84,638200,34.088503
2008-01-08,40.0,40.77,38.470001,38.509998,486000,32.950507
2008-01-09,38.5,39.810001,38.25,39.73,437900,33.994382
2008-01-10,39.349998,40.330002,39.119999,39.689999,569800,33.960156
2008-01-11,39.450001,40.150002,38.0,38.0,529200,32.514134
2008-01-14,38.259998,39.380001,38.080002,39.02,259900,33.386882
2008-01-15,38.540001,38.700001,37.709999,37.869999,295200,32.402901
2008-01-16,37.77,38.41,36.869999,37.52,431500,32.10343
2008-01-17,37.580002,38.0,36.349998,36.349998,446100,31.102335
2008-01-18,34.91,36.830002,33.130001,35.110001,1646300,30.041349
2008-01-22,33.650002,35.5,33.259998,34.740002,666500,29.724765
2008-01-23,34.189999,36.41,32.869999,36.349998,839700,31.102335
2008-01-24,36.52,36.630001,35.189999,35.549999,588000,30.417827
2008-01-25,35.98,36.799999,35.549999,36.360001,628100,31.110893
2008-01-28,36.419998,37.52,35.630001,37.279999,506100,31.898076
2008-01-29,37.43,37.599998,36.57,37.330002,483900,32.052631
2008-01-30,36.990002,37.790001,36.0,36.009998,549900,30.919237
2008-01-31,35.32,38.169998,35.23,37.700001,593200,32.370323
2008-02-01,37.82,38.720001,37.459999,38.060001,405100,32.67943
2008-02-04,38.110001,38.150002,36.139999,36.299999,715100,31.16824
2008-02-05,35.57,35.700001,34.689999,35.09,752600,30.1293
2008-02-06,35.509998,35.919998,34.779999,34.900002,411700,29.966161
2008-02-07,34.560001,35.759998,34.369999,34.439999,607000,29.571189
2008-02-08,34.450001,36.59,33.869999,36.349998,822300,31.211171
2008-02-11,36.290001,38.25,36.290001,37.880001,1120900,32.524876
2008-02-12,38.0,39.240002,37.82,38.950001,5111700,33.443609
2008-02-13,39.34,39.720001,38.810001,39.470001,614300,33.890097
2008-02-14,39.630001,39.82,38.330002,38.669998,581400,33.203191
2008-02-15,38.27,39.02,37.380001,38.939999,703100,33.435021
2008-02-19,39.240002,39.330002,38.310001,38.5,604300,33.057225
2008-02-20,38.389999,39.0,38.110001,38.700001,420600,33.228952
2008-02-21,39.0,39.470001,38.23,38.419998,312200,32.988533
2008-02-22,38.529999,38.860001,37.799999,38.779999,428000,33.29764
2008-02-25,38.639999,39.599998,38.049999,39.509998,373600,33.924439
2008-02-26,39.360001,40.07,39.279999,39.470001,554800,33.890097
2008-02-27,39.0,40.07,38.709999,39.419998,512200,33.847163
2008-02-28,39.34,39.34,38.299999,38.740002,483000,33.263298
2008-02-29,38.25,38.25,37.290001,37.48,506400,32.181423
2008-03-03,37.290001,38.110001,37.099998,38.049999,695900,32.670841
2008-03-04,37.720001,37.77,36.23,36.830002,763100,31.623316
2008-03-05,37.0,37.189999,36.299999,36.880001,554200,31.666247
2008-03-06,36.599998,36.919998,35.34,35.5,788600,30.481338
2008-03-07,35.25,36.27,35.02,35.779999,643100,30.721753
2008-03-10,35.970001,35.98,34.91,34.98,474200,30.03485
2008-03-11,36.139999,36.75,35.509998,36.75,548100,31.554624
2008-03-12,37.0,37.040001,35.490002,36.459999,572600,31.305621
2008-03-13,35.889999,36.790001,35.189999,36.470001,504200,31.314209
2008-03-14,36.700001,36.700001,34.700001,35.400002,718600,30.395476
2008-03-17,34.799999,36.709999,34.509998,35.240002,931900,30.258095
2008-03-18,35.52,38.080002,35.52,37.849998,757600,32.499115
2008-03-19,38.18,38.880001,36.84,36.84,471500,31.631901
2008-03-20,37.209999,38.290001,36.700001,37.700001,1210500,32.370323
2008-03-24,37.84,39.369999,37.810001,38.779999,321600,33.29764
2008-03-25,38.869999,39.709999,38.48,39.470001,404300,33.890097
2008-03-26,39.369999,39.599998,38.77,39.16,294100,33.62392
2008-03-27,39.459999,39.759998,38.529999,38.619999,250100,33.16026
2008-03-28,38.75,39.110001,38.389999,38.549999,275700,33.100156
2008-03-31,38.459999,39.25,38.220001,38.93,330900,33.426436
2008-04-01,39.369999,40.720001,38.98,40.650002,411900,34.903279
2008-04-02,40.509998,41.029999,40.099998,40.669998,374300,34.920449
2008-04-03,40.459999,40.919998,40.0,40.490002,302100,34.765899
2008-04-04,40.400002,41.18,40.099998,40.560001,321800,34.826003
2008-04-07,40.709999,41.139999,40.48,40.82,376200,35.049245
2008-04-08,40.439999,40.91,40.060001,40.560001,216400,34.826003
2008-04-09,40.41,40.73,39.57,39.799999,269700,34.173443
2008-04-10,39.869999,40.990002,39.560001,40.790001,252400,35.023487
2008-04-11,40.389999,40.419998,39.610001,39.82,433500,34.190616
2008-04-14,39.75,39.900002,39.200001,39.41,302000,33.838578
2008-04-15,39.68,40.209999,39.220001,40.150002,429200,34.473965
2008-04-16,40.599998,42.299999,40.48,42.299999,742500,36.320016
2008-04-17,44.450001,45.200001,43.139999,44.860001,1488300,38.518108
2008-04-18,45.419998,45.419998,43.799999,44.27,771000,38.011516
2008-04-21,44.330002,45.240002,43.669998,45.060001,682500,38.689834
2008-04-22,44.900002,45.049999,43.389999,44.09,560600,37.856963
2008-04-23,44.299999,44.740002,43.939999,44.5,314100,38.209001
2008-04-24,44.32,45.400002,44.0,44.75,366000,38.423658
2008-04-25,44.779999,45.099998,44.220001,44.950001,428000,38.595384
2008-04-28,45.060001,45.330002,44.0,44.650002,401000,38.448995
2008-04-29,44.68,44.68,44.0,44.099998,344100,37.975377
2008-04-30,44.619999,45.009998,43.810001,44.150002,463100,38.018436
2008-05-01,44.16,45.279999,44.0,44.48,429600,38.302603
2008-05-02,44.77,45.18,43.939999,44.09,307500,37.966767
2008-05-05,44.150002,44.380001,43.52,44.16,302800,38.027045
2008-05-06,44.0,44.75,43.98,44.389999,380400,38.225102
2008-05-07,44.389999,44.52,43.220001,43.299999,346100,37.286482
2008-05-08,43.849998,44.0,42.91,43.540001,332500,37.493152
2008-05-09,43.009998,43.880001,42.490002,43.73,378700,37.656764
2008-05-12,43.98,44.849998,43.259998,44.75,289200,38.535106
2008-05-13,44.849998,45.009998,44.380001,44.790001,177500,38.569552
2008-05-14,44.869999,45.16,44.34,44.52,213100,38.337049
2008-05-15,44.419998,44.869999,43.709999,44.689999,299000,38.483438
2008-05-16,44.68,45.209999,43.75,44.720001,359900,38.509273
2008-05-19,44.57,44.849998,43.82,44.09,409000,37.966767
2008-05-20,43.860001,44.669998,43.450001,44.27,489800,38.121769
2008-05-21,44.459999,44.82,43.34,43.709999,369500,37.639541
2008-05-22,43.630001,44.650002,43.470001,44.080002,308800,37.958157
2008-05-23,44.18,44.290001,43.200001,43.950001,523500,37.846211
2008-05-27,44.220001,44.630001,43.5,44.630001,339000,38.431773
2008-05-28,44.950001,45.310001,44.549999,45.080002,366700,38.819277
2008-05-29,45.240002,45.830002,44.98,45.52,496100,39.198169
2008-05-30,45.0,45.889999,43.23,44.720001,1005900,38.509273
2008-06-02,44.889999,45.009998,43.849998,44.299999,444100,38.147602
2008-06-03,44.330002,44.59,43.799999,44.32,391700,38.164824
2008-06-04,44.310001,45.48,44.049999,44.810001,454500,38.586774
2008-06-05,45.009998,46.16,44.68,46.16,468400,39.749285
2008-06-06,46.189999,46.189999,44.650002,44.759998,354400,38.543716
2008-06-09,45.139999,45.139999,43.470001,43.939999,543600,37.837598
2008-06-10,43.720001,44.470001,43.150002,43.900002,519600,37.803156
2008-06-11,43.959999,44.349998,42.599998,42.639999,468300,36.718143
2008-06-12,42.790001,43.939999,42.720001,43.040001,326000,37.062592
2008-06-13,43.139999,43.700001,42.720001,43.259998,565300,37.252036
2008-06-16,42.950001,43.419998,42.310001,43.349998,325900,37.329537
2008-06-17,43.200001,43.360001,42.82,42.880001,359900,36.924813
2008-06-18,42.619999,42.619999,41.849998,42.150002,429800,36.296196
2008-06-19,42.209999,43.130001,42.209999,42.889999,367800,36.933423
2008-06-20,42.720001,42.959999,41.889999,42.139999,720700,36.287583
2008-06-23,42.290001,42.759998,42.099998,42.400002,350400,36.511476
2008-06-24,42.130001,42.32,41.41,41.48,448000,35.719244
2008-06-25,41.540001,42.470001,41.529999,42.349998,598400,36.468417
2008-06-26,41.939999,42.32,40.740002,41.330002,738500,35.590078
2008-06-27,41.43,42.830002,41.150002,42.360001,4819700,36.47703
2008-06-30,42.400002,42.560001,41.860001,41.950001,618000,36.123972
2008-07-01,41.439999,42.209999,40.490002,42.119999,566000,36.27036
2008-07-02,42.099998,42.330002,41.48,41.48,573400,35.719244
2008-07-03,41.509998,41.810001,40.880001,41.16,370700,35.443686
2008-07-07,41.450001,41.810001,40.549999,40.810001,406700,35.142296
2008-07-08,40.560001,41.66,40.25,41.540001,422600,35.770913
2008-07-09,41.540001,41.82,40.950001,41.07,301400,35.366185
2008-07-10,41.080002,42.080002,41.0,41.48,325700,35.719244
2008-07-11,41.0,41.880001,40.48,41.419998,236800,35.667576
2008-07-14,41.880001,42.080002,40.610001,41.290001,438000,35.555633
2008-07-15,40.740002,41.740002,39.990002,41.099998,395400,35.392018
2008-07-16,41.150002,42.119999,40.75,42.07,327300,36.227305
2008-07-17,42.25,43.639999,42.040001,43.529999,751400,37.484539
2008-07-18,39.689999,40.299999,37.209999,38.07,2638400,32.782826
2008-07-21,38.389999,38.950001,36.860001,37.220001,956900,32.050876
2008-07-22,37.07,38.330002,36.540001,38.150002,688000,32.851717
2008-07-23,38.099998,38.509998,37.790001,37.860001,745700,32.601992
2008-07-24,37.950001,38.130001,37.240002,37.310001,557000,32.128377
2008-07-25,37.470001,38.200001,37.25,37.59,406300,32.369489
2008-07-28,37.169998,37.259998,36.790001,37.139999,361400,32.110117
2008-07-29,37.150002,38.200001,36.75,38.119999,409300,32.957395
2008-07-30,38.380001,39.880001,38.380001,39.52,602000,34.167794
2008-07-31,39.23,39.240002,38.529999,38.700001,431800,33.458847
2008-08-01,39.040001,39.080002,38.290001,38.709999,430200,33.467491
2008-08-04,38.810001,38.810001,37.689999,38.110001,486000,32.94875
2008-08-05,38.5,39.049999,38.299999,39.009998,354500,33.726861
2008-08-06,38.41,39.560001,38.380001,39.360001,219600,34.029463
2008-08-07,38.669998,39.73,38.669998,39.27,246600,33.951651
2008-08-08,39.459999,40.299999,39.43,39.73,366900,34.349352
2008-08-11,39.73,40.439999,39.240002,40.330002,332900,34.868096
2008-08-12,40.259998,40.560001,39.93,39.98,252000,34.565495
2008-08-13,39.93,40.400002,39.5,40.360001,285400,34.894032
2008-08-14,40.25,40.57,40.060001,40.310001,160800,34.850804
2008-08-15,40.580002,41.110001,40.040001,40.48,303600,34.99778
2008-08-18,40.529999,40.529999,39.799999,39.990002,273700,34.574142
2008-08-19,39.759998,40.279999,38.970001,39.360001,340600,34.029463
2008-08-20,39.369999,39.700001,38.869999,39.52,352600,34.167794
2008-08-21,39.16,39.630001,38.91,39.43,256900,34.089982
2008-08-22,39.59,40.189999,39.59,40.099998,190600,34.669242
2008-08-25,39.860001,39.990002,39.110001,39.450001,360600,34.107274
2008-08-26,39.5,39.849998,39.009998,39.5,288900,34.150502
2008-08-27,39.330002,40.220001,39.049999,39.93,358500,34.522267
2008-08-28,40.02,41.060001,39.98,40.919998,264400,35.378189
2008-08-29,40.849998,40.880001,39.939999,40.389999,173500,34.919968
2008-09-02,40.790001,41.779999,40.259998,40.299999,278600,34.842157
2008-09-03,40.330002,41.02,40.060001,40.66,370900,35.153402
2008-09-04,40.209999,40.27,39.389999,39.630001,304200,34.262897
2008-09-05,39.279999,39.939999,38.959999,39.740002,303400,34.358
2008-09-08,40.619999,40.93,39.830002,40.279999,181500,34.824865
2008-09-09,40.369999,40.48,39.34,39.689999,414400,34.314769
2008-09-10,39.68,40.200001,39.099998,39.970001,319900,34.556851
2008-09-11,39.580002,39.799999,38.93,39.650002,398300,34.280188
2008-09-12,39.360001,40.57,39.349998,40.279999,408000,34.824865
2008-09-15,39.150002,40.07,38.799999,39.099998,462700,33.804673
2008-09-16,38.630001,40.799999,37.650002,40.66,746300,35.153402
2008-09-17,39.98,40.43,38.849998,38.869999,587700,33.605822
2008-09-18,39.259998,42.330002,38.25,41.07,1021500,35.507876
2008-09-19,41.389999,44.029999,41.389999,41.389999,5900,35.784538
2008-09-22,41.07,41.57,40.290001,40.380001,340000,34.911324
2008-09-23,40.290001,40.560001,39.130001,39.59,433900,34.228313
2008-09-24,39.82,40.02,39.189999,39.57,288500,34.211021
2008-09-25,39.73,40.360001,39.57,39.990002,305000,34.574142
2008-09-26,39.5,39.900002,39.18,39.75,236500,34.366644
2008-09-29,39.0,39.27,37.650002,37.93,543000,32.793128
2008-09-30,38.419998,39.18,37.790001,39.110001,577700,33.81332
2008-10-01,39.02,39.75,38.860001,39.459999,368300,34.115918
2008-10-02,38.009998,39.09,37.82,38.169998,735300,33.000622
2008-10-03,38.549999,39.009998,36.299999,36.52,383700,31.574085
2008-10-06,35.490002,35.700001,33.52,35.630001,594500,30.804618
2008-10-07,35.91,36.68,34.049999,34.66,477200,29.965984
2008-10-08,33.68,35.380001,28.9,34.09,777700,29.47318
2008-10-09,33.919998,34.25,31.360001,32.0,727300,27.666229
2008-10-10,30.690001,34.799999,23.74,33.529999,1014000,28.98902
2008-10-13,34.360001,35.209999,33.34,34.939999,241300,30.208063
2008-10-14,35.939999,35.939999,33.330002,33.950001,605700,29.352141
2008-10-15,33.599998,33.599998,31.43,31.66,800800,27.372275
2008-10-16,28.02,33.310001,27.01,33.27,1167500,28.764233
2008-10-17,32.060001,33.34,29.549999,32.23,548100,27.86508
2008-10-20,32.529999,32.990002,31.950001,32.240002,946100,27.873727
2008-10-21,31.6,32.189999,30.6,30.82,742400,26.646037
2008-10-22,30.01,30.1,28.030001,28.780001,682500,24.882316
2008-10-23,28.91,29.43,26.799999,28.1,803700,24.294408
2008-10-24,25.940001,27.700001,25.49,27.16,617500,23.481712
2008-10-27,26.780001,27.49,25.889999,26.49,604900,23.029639
2008-10-28,26.879999,27.59,26.059999,27.59,681400,23.985948
2008-10-29,27.65,30.209999,27.23,29.219999,739600,25.403022
2008-10-30,30.08,30.299999,28.860001,30.190001,534400,26.246313
2008-10-31,30.360001,30.620001,29.559999,30.32,375000,26.35933
2008-11-03,30.309999,31.440001,30.01,30.98,293700,26.933115
2008-11-04,31.5,32.330002,31.24,32.099998,333100,27.90681
2008-11-05,31.790001,32.279999,31.280001,31.33,489500,27.237395
2008-11-06,31.209999,31.469999,30.07,30.219999,442400,26.272393
2008-11-07,30.530001,31.59,30.360001,31.59,277800,27.463432
2008-11-10,32.200001,32.290001,30.82,31.129999,335500,27.06352
2008-11-11,30.870001,31.25,30.02,30.66,308400,26.654916
2008-11-12,30.200001,30.59,29.440001,29.57,324300,25.707302
2008-11-13,29.75,31.34,28.52,31.34,598700,27.246089
2008-11-14,30.889999,31.370001,29.780001,29.879999,306100,25.976806
2008-11-17,29.530001,31.129999,29.5,30.290001,303300,26.33325
2008-11-18,30.35,30.75,29.1,30.1,439100,26.168069
2008-11-19,30.27,30.280001,28.09,28.09,451400,24.420633
2008-11-20,28.9,30.459999,27.940001,28.09,824600,24.420633
2008-11-21,28.66,29.42,27.84,29.23,1151200,25.411716
2008-11-24,29.52,30.65,29.379999,30.02,601500,26.09852
2008-11-25,30.200001,31.360001,29.540001,31.219999,579300,27.141764
2008-11-26,30.84,33.040001,30.469999,32.75,367600,28.471902
2008-11-28,32.650002,33.439999,32.259998,33.439999,89800,29.071767
2008-12-01,32.490002,32.490002,29.950001,29.99,607200,26.072438
2008-12-02,30.58,31.73,30.16,31.18,717900,27.10699
2008-12-03,30.27,32.0,30.24,31.6,635700,27.472126
2008-12-04,31.209999,31.940001,30.1,30.83,445900,26.80271
2008-12-05,30.370001,32.16,29.25,32.139999,495300,27.941585
2008-12-08,32.900002,33.849998,31.98,32.540001,713600,28.289335
2008-12-09,32.43,32.77,30.82,31.120001,867100,27.054828
2008-12-10,31.52,32.310001,31.23,32.099998,714300,27.90681
2008-12-11,32.07,32.549999,30.469999,30.889999,720900,26.854871
2008-12-12,30.25,32.369999,30.09,32.240002,616900,28.028524
2008-12-15,32.5,32.790001,31.52,32.0,497700,27.819874
2008-12-16,32.27,34.459999,32.080002,34.400002,624300,29.906366
2008-12-17,33.900002,34.93,33.529999,34.279999,509100,29.802039
2008-12-18,34.59,34.900002,32.68,33.310001,491800,28.958751
2008-12-19,33.610001,34.169998,33.189999,33.439999,645600,29.071767
2008-12-22,33.169998,33.400002,32.07,32.849998,415500,28.558838
2008-12-23,33.470001,33.689999,32.59,33.049999,524000,28.732713
2008-12-24,32.860001,33.23,32.66,33.040001,105400,28.724021
2008-12-26,33.220001,33.59,32.91,33.580002,229400,29.193482
2008-12-29,33.610001,33.66,32.93,33.459999,251500,29.089155
2008-12-30,33.59,34.860001,33.450001,34.810001,287800,30.262808
2008-12-31,34.82,35.490002,34.610001,35.240002,399100,30.636637
2009-01-02,35.389999,36.080002,34.889999,35.82,419200,31.140871
2009-01-05,35.689999,36.07,34.540001,35.07,482700,30.488843
2009-01-06,35.490002,35.490002,33.779999,34.009998,732700,29.567308
2009-01-07,33.549999,33.560001,32.560001,32.869999,537900,28.576226
2009-01-08,32.91,33.740002,32.57,33.68,676800,29.280417
2009-01-09,33.560001,33.560001,32.169998,32.540001,736600,28.289335
2009-01-12,32.560001,32.720001,31.879999,32.380001,336800,28.150236
2009-01-13,32.209999,32.75,31.4,32.41,607800,28.176316
2009-01-14,31.32,31.34,30.290001,30.559999,562500,26.567979
2009-01-15,30.530001,31.24,29.370001,31.09,640900,27.028746
2009-01-16,31.559999,31.559999,29.559999,30.440001,981600,26.463655
2009-01-20,30.23,30.58,29.040001,29.1,750400,25.298698
2009-01-21,29.5,30.450001,29.280001,30.370001,429100,26.4028
2009-01-22,29.959999,30.450001,29.59,29.99,398900,26.072438
2009-01-23,29.4,30.25,29.4,30.01,348400,26.089826
2009-01-26,30.049999,31.02,29.91,30.370001,360200,26.4028
2009-01-27,30.459999,30.889999,30.200001,30.74,281100,26.857117
2009-01-28,31.33,32.32,31.25,31.879999,492200,27.853119
2009-01-29,31.440001,32.09,31.23,31.440001,357100,27.468698
2009-01-30,31.219999,31.5,30.629999,30.82,394700,26.927012
2009-02-02,30.379999,30.93,29.780001,29.99,819200,26.201852
2009-02-03,30.23,30.41,29.870001,30.040001,885100,26.245538
2009-02-04,29.969999,30.57,29.68,29.719999,643100,25.965957
2009-02-05,29.58,30.629999,29.41,30.08,895100,26.280484
2009-02-06,29.6,30.91,29.02,30.860001,803400,26.96196
2009-02-09,30.6,30.83,29.93,30.280001,570100,26.455222
2009-02-10,29.9,30.299999,28.83,29.07,527600,25.398061
2009-02-11,29.33,29.540001,28.969999,29.33,415200,25.62522
2009-02-12,28.790001,29.690001,28.59,29.6,451400,25.861115
2009-02-13,29.66,29.82,29.0,29.18,450000,25.494167
2009-02-17,28.24,28.540001,27.629999,28.0,452800,24.463217
2009-02-18,28.059999,28.219999,27.43,27.799999,310900,24.288479
2009-02-19,27.940001,28.17,27.309999,27.459999,444200,23.991425
2009-02-20,26.82,27.530001,26.700001,27.32,456700,23.86911
2009-02-23,27.559999,27.57,26.25,26.280001,498500,22.960477
2009-02-24,26.440001,27.440001,26.25,27.26,606000,23.816689
2009-02-25,27.24,28.110001,26.59,27.620001,938700,24.131217
2009-02-26,27.629999,28.290001,27.459999,27.65,532400,24.157426
2009-02-27,27.059999,28.540001,26.93,28.059999,569100,24.515637
2009-03-02,27.620001,27.84,26.33,26.379999,829400,23.047844
2009-03-03,26.809999,26.99,26.01,26.120001,500900,22.820687
2009-03-04,26.6,27.030001,26.209999,26.620001,415200,23.25753
2009-03-05,26.43,26.48,25.68,25.809999,447500,22.549843
2009-03-06,26.1,26.24,24.950001,25.549999,547500,22.322685
2009-03-09,25.450001,26.41,25.110001,25.299999,448000,22.104263
2009-03-10,26.01,26.450001,25.68,26.309999,408900,22.986686
2009-03-11,26.709999,26.709999,25.780001,26.139999,308700,22.83816
2009-03-12,26.02,27.059999,25.76,26.940001,373000,23.53711
2009-03-13,27.059999,27.549999,26.879999,27.42,279200,23.956479
2009-03-16,27.58,28.139999,27.280001,27.370001,322600,23.912795
2009-03-17,27.610001,27.959999,27.1,27.959999,431100,24.428269
2009-03-18,27.959999,29.540001,27.93,29.540001,579200,25.808695
2009-03-19,29.719999,30.26,29.540001,30.049999,541200,26.254273
2009-03-20,29.700001,30.51,29.25,29.49,474300,25.765009
2009-03-23,30.08,30.84,29.540001,30.809999,333800,26.918275
2009-03-24,30.459999,30.9,30.25,30.440001,239700,26.595012
2009-03-25,30.6,31.4,30.030001,30.91,251200,27.005644
2009-03-26,31.139999,32.509998,31.09,32.48,344300,28.377331
2009-03-27,31.85,32.389999,31.790001,32.099998,239600,28.045329
2009-03-30,31.41,31.67,30.379999,30.950001,477300,27.040592
2009-03-31,31.09,31.58,30.68,31.139999,351600,27.206591
2009-04-01,30.709999,31.190001,30.290001,31.09,388100,27.162908
2009-04-02,31.85,33.209999,31.530001,32.759998,443900,28.621962
2009-04-03,32.720001,33.02,32.040001,32.849998,289700,28.700594
2009-04-06,32.73,33.139999,32.400002,32.849998,354300,28.700594
2009-04-07,32.360001,32.490002,31.219999,31.700001,371100,27.695857
2009-04-08,31.98,32.459999,31.76,32.459999,203000,28.359857
2009-04-09,33.34,33.549999,32.970001,33.5,346800,29.268492
2009-04-13,33.189999,33.189999,32.48,32.849998,319200,28.700594
2009-04-14,32.34,32.560001,31.74,32.0,317600,27.957962
2009-04-15,31.889999,32.5,31.26,32.360001,376400,28.27249
2009-04-16,29.91,30.9,29.1,30.23,1109200,26.411537
2009-04-17,30.18,30.309999,29.42,29.67,519200,25.922273
2009-04-20,29.24,29.440001,28.76,28.83,488600,25.188376
2009-04-21,28.83,29.67,28.610001,29.610001,401900,25.869852
2009-04-22,29.25,30.219999,29.1,29.389999,496800,25.67764
2009-04-23,29.620001,29.879999,29.18,29.860001,457400,26.088274
2009-04-24,30.370001,30.469999,29.84,30.280001,391000,26.455222
2009-04-27,29.809999,30.52,29.58,30.23,311600,26.543023
2009-04-28,29.73,30.4,29.639999,30.0,473100,26.341075
2009-04-29,30.200001,30.99,29.969999,30.790001,318600,27.034724
2009-04-30,31.190001,31.629999,30.91,31.030001,368700,27.245453
2009-05-01,30.780001,30.969999,30.299999,30.690001,344400,26.946921
2009-05-04,30.85,31.360001,30.49,31.33,292000,27.508863
2009-05-05,31.120001,31.42,30.91,31.32,360100,27.500082
2009-05-06,31.57,31.57,30.870001,31.57,444700,27.719591
2009-05-07,31.93,31.93,30.75,31.139999,321300,27.342036
2009-05-08,31.42,31.530001,30.91,31.360001,278600,27.535205
2009-05-11,30.68,31.26,30.629999,31.09,270000,27.298135
2009-05-12,31.120001,31.280001,30.66,31.16,241300,27.359597
2009-05-13,30.68,30.92,30.02,30.17,345600,26.490341
2009-05-14,30.030001,30.99,30.01,30.719999,297600,26.973261
2009-05-15,30.59,30.99,30.370001,30.65,253300,26.911798
2009-05-18,30.9,31.09,30.540001,31.0,285200,27.219111
2009-05-19,31.0,31.51,30.940001,31.26,269300,27.447401
2009-05-20,31.4,31.620001,30.76,31.040001,293100,27.254233
2009-05-21,30.780001,31.030001,30.4,30.74,236200,26.990822
2009-05-22,30.959999,31.129999,30.639999,30.68,155300,26.93814
2009-05-26,30.530001,31.9,30.51,31.629999,255200,27.772273
2009-05-27,31.389999,31.540001,30.65,30.700001,271100,26.955701
2009-05-28,30.84,30.879999,30.07,30.450001,402600,26.736192
2009-05-29,30.469999,31.01,30.280001,31.01,318000,27.227892
2009-06-01,31.549999,32.389999,31.549999,32.169998,284200,28.246411
2009-06-02,31.809999,32.959999,31.809999,32.860001,390000,28.852258
2009-06-03,32.66,32.91,32.099998,32.799999,465500,28.799575
2009-06-04,32.810001,32.98,32.580002,32.849998,226800,28.843476
2009-06-05,33.0,33.310001,32.209999,32.439999,347700,28.483482
2009-06-08,32.080002,32.93,32.040001,32.75,247900,28.755674
2009-06-09,32.84,33.110001,32.599998,33.02,273000,28.992744
2009-06-10,33.349998,33.419998,32.759998,33.330002,386200,29.264936
2009-06-11,33.360001,34.259998,33.360001,34.029999,270100,29.879559
2009-06-12,33.900002,34.150002,33.349998,34.02,284300,29.87078
2009-06-15,33.84,34.02,33.049999,33.290001,208100,29.229814
2009-06-16,33.66,33.709999,32.830002,32.98,297500,28.957622
2009-06-17,32.98,33.439999,32.740002,33.139999,231800,29.098107
2009-06-18,33.220001,33.380001,32.889999,32.990002,189600,28.966404
2009-06-19,33.34,33.52,32.860001,32.91,247600,28.896159
2009-06-22,32.73,32.810001,31.98,32.02,231800,28.114708
2009-06-23,32.259998,32.5,31.91,32.209999,193100,28.281534
2009-06-24,32.27,32.810001,32.189999,32.240002,238700,28.307877
2009-06-25,32.029999,33.07,32.0,32.959999,189600,28.940061
2009-06-26,32.889999,33.450001,32.610001,33.360001,356200,29.291276
2009-06-29,33.490002,33.990002,33.110001,33.790001,143400,29.668832
2009-06-30,33.700001,33.889999,33.349998,33.77,234100,29.651271
2009-07-01,33.889999,34.650002,33.82,34.110001,204200,29.949803
2009-07-02,33.830002,33.830002,33.080002,33.650002,138300,29.545907
2009-07-06,33.360001,33.389999,32.880001,33.150002,215600,29.10689
2009-07-07,33.200001,33.48,32.560001,32.560001,166400,28.588848
2009-07-08,32.799999,32.900002,32.16,32.400002,191500,28.448363
2009-07-09,32.610001,32.77,32.220001,32.419998,173300,28.46592
2009-07-10,32.139999,32.779999,32.139999,32.709999,124300,28.720552
2009-07-13,32.75,33.380001,32.360001,33.32,95600,29.256154
2009-07-14,33.380001,33.439999,32.950001,33.330002,156600,29.264936
2009-07-15,33.84,35.110001,33.84,35.0,364700,30.731255
2009-07-16,35.18,35.93,35.0,35.740002,318700,31.381003
2009-07-17,35.419998,36.099998,35.009998,35.139999,388100,30.854179
2009-07-20,35.389999,35.98,35.119999,35.82,263500,31.451244
2009-07-21,35.900002,35.900002,35.279999,35.599998,200900,31.258075
2009-07-22,35.5,35.900002,35.25,35.73,145100,31.37222
2009-07-23,35.810001,36.490002,35.509998,36.09,217700,31.688314
2009-07-24,35.82,36.099998,35.75,36.060001,174400,31.661974
2009-07-27,35.900002,35.900002,35.139999,35.25,299500,31.080048
2009-07-28,34.919998,35.34,34.849998,34.970001,308900,30.833172
2009-07-29,34.669998,34.889999,34.48,34.619999,324100,30.524574
2009-07-30,34.82,35.419998,34.580002,34.98,166000,30.841988
2009-07-31,34.82,35.400002,34.82,34.919998,159700,30.789084
2009-08-03,35.34,35.84,34.970001,35.68,201500,31.459181
2009-08-04,35.610001,36.09,35.610001,35.889999,132100,31.644338
2009-08-05,35.849998,36.080002,35.310001,35.540001,120800,31.335743
2009-08-06,35.759998,35.950001,35.029999,35.09,199000,30.938976
2009-08-07,35.25,35.580002,35.099998,35.32,115700,31.141767
2009-08-10,35.110001,35.290001,34.75,35.0,85100,30.859622
2009-08-11,34.759998,35.830002,34.580002,35.52,190800,31.318109
2009-08-12,35.48,35.990002,35.16,35.709999,127100,31.485631
2009-08-13,35.790001,36.080002,35.66,35.970001,160100,31.714876
2009-08-14,35.869999,36.209999,35.16,35.450001,131400,31.25639
2009-08-17,34.959999,35.169998,34.59,34.73,158800,30.621562
2009-08-18,34.970001,35.0,34.299999,34.889999,187200,30.762634
2009-08-19,34.52,35.299999,34.52,35.220001,101000,31.053598
2009-08-20,35.209999,35.349998,34.889999,35.290001,79200,31.115317
2009-08-21,35.619999,36.0,35.330002,35.630001,184700,31.415097
2009-08-24,35.759998,35.950001,35.369999,35.5,118400,31.300474
2009-08-25,35.68,35.91,35.380001,35.490002,88700,31.291659
2009-08-26,35.470001,35.540001,35.060001,35.169998,119000,31.00951
2009-08-27,35.16,35.380001,34.470001,35.09,134500,30.938976
2009-08-28,35.27,35.529999,34.650002,34.77,98400,30.656831
2009-08-31,34.470001,34.700001,34.299999,34.380001,116100,30.312967
2009-09-01,34.310001,34.849998,33.75,34.139999,173100,30.101357
2009-09-02,34.07,34.279999,33.860001,33.98,107200,29.960284
2009-09-03,33.970001,34.18,33.650002,34.139999,135200,30.101357
2009-09-04,34.07,34.330002,33.580002,34.299999,196800,30.242429
2009-09-08,34.700001,34.990002,34.189999,34.950001,158400,30.815538
2009-09-09,34.950001,35.259998,34.849998,35.169998,225700,31.00951
2009-09-10,35.049999,35.450001,34.82,35.27,196600,31.097683
2009-09-11,35.439999,35.66,35.310001,35.48,167900,31.28284
2009-09-14,35.279999,36.07,35.110001,35.900002,201000,31.653157
2009-09-15,36.0,36.880001,35.580002,36.799999,170800,32.446688
2009-09-16,36.82,37.25,36.810001,37.110001,111100,32.720017
2009-09-17,37.110001,37.470001,36.810001,36.939999,193100,32.570126
2009-09-18,37.0,37.25,36.66,36.700001,353700,32.358519
2009-09-21,36.470001,37.09,36.209999,36.950001,195800,32.578945
2009-09-22,37.080002,37.220001,36.66,37.099998,200100,32.711198
2009-09-23,37.279999,38.09,37.02,37.360001,272200,32.940443
2009-09-24,37.41,37.610001,36.619999,36.810001,142900,32.455507
2009-09-25,36.790001,36.849998,36.240002,36.380001,128000,32.076374
2009-09-28,36.639999,37.580002,36.529999,37.349998,156400,32.931624
2009-09-29,37.310001,37.650002,37.25,37.380001,113200,32.958078
2009-09-30,37.360001,37.610001,36.810001,37.360001,210400,32.940443
2009-10-01,37.110001,37.130001,36.389999,36.419998,209300,32.11164
2009-10-02,36.049999,36.459999,36.029999,36.119999,115700,31.847129
2009-10-05,36.209999,36.709999,35.98,36.709999,157700,32.367335
2009-10-06,36.849998,37.259998,36.599998,36.830002,165100,32.473141
2009-10-07,36.849998,37.32,36.709999,37.07,127300,32.684748
2009-10-08,37.220001,37.720001,37.009998,37.34,225400,32.922809
2009-10-09,37.189999,37.98,37.049999,37.98,146500,33.487098
2009-10-12,38.07,38.529999,37.689999,37.950001,106500,33.460648
2009-10-13,37.959999,38.169998,37.700001,38.040001,254400,33.540002
2009-10-14,38.32,38.959999,38.009998,38.889999,292500,34.289448
2009-10-15,37.98,38.32,36.5,37.700001,587300,33.240222
2009-10-16,37.560001,37.720001,37.25,37.490002,184000,33.055066
2009-10-19,37.689999,37.700001,37.189999,37.529999,286100,33.090331
2009-10-20,37.630001,37.779999,37.02,37.07,217100,32.684748
2009-10-21,37.0,37.450001,36.619999,36.619999,179500,32.287981
2009-10-22,36.5,37.32,36.43,37.169998,176500,32.772917
2009-10-23,37.25,37.310001,36.610001,36.959999,218400,32.58776
2009-10-26,36.849998,37.459999,36.529999,36.919998,241400,32.685144
2009-10-27,37.080002,37.220001,36.189999,36.27,269300,32.109703
2009-10-28,36.32,36.32,35.419998,35.43,170900,31.366054
2009-10-29,35.580002,35.889999,35.32,35.740002,245200,31.640497
2009-10-30,35.490002,35.959999,35.040001,35.310001,406400,31.259819
2009-11-02,35.380001,35.470001,34.66,34.93,443300,30.923406
2009-11-03,34.720001,35.290001,34.52,35.200001,244600,31.162436
2009-11-04,35.380001,35.48,34.950001,35.02,173300,31.003083
2009-11-05,35.299999,35.66,35.029999,35.66,179000,31.569672
2009-11-06,35.360001,35.759998,35.23,35.439999,156200,31.374905
2009-11-09,35.619999,36.080002,35.450001,36.029999,164200,31.897231
2009-11-10,35.790001,36.099998,35.669998,35.950001,270900,31.826409
2009-11-11,35.970001,36.259998,35.700001,35.959999,161200,31.83526
2009-11-12,35.869999,36.27,35.549999,35.599998,134200,31.516553
2009-11-13,35.759998,36.220001,35.619999,36.0,147000,31.870673
2009-11-16,36.34,36.860001,36.18,36.709999,248900,32.499232
2009-11-17,36.52,36.959999,36.310001,36.91,347500,32.676292
2009-11-18,36.990002,37.07,36.52,36.599998,181700,32.401849
2009-11-19,36.450001,36.57,35.75,36.41,164900,32.233644
2009-11-20,36.110001,36.41,35.880001,36.34,120500,32.171674
2009-11-23,36.860001,37.299999,36.369999,36.68,75900,32.472675
2009-11-24,36.540001,36.619999,36.150002,36.509998,90600,32.322172
2009-11-25,36.580002,36.889999,36.459999,36.82,51500,32.596616
2009-11-27,35.830002,36.32,35.610001,35.91,37300,31.790996
2009-11-30,35.810001,36.119999,35.419998,36.119999,202200,31.976907
2009-12-01,36.299999,36.57,36.139999,36.310001,145500,32.145116
2009-12-02,36.369999,36.959999,36.310001,36.470001,246900,32.286763
2009-12-03,36.549999,36.990002,36.040001,36.060001,121900,31.923792
2009-12-04,36.439999,36.84,36.130001,36.529999,95600,32.339879
2009-12-07,36.41,36.700001,36.32,36.639999,84500,32.437262
2009-12-08,36.349998,36.73,36.040001,36.68,131900,32.472675
2009-12-09,36.619999,36.959999,36.580002,36.709999,123800,32.499232
2009-12-10,36.990002,37.09,36.139999,36.310001,197400,32.145116
2009-12-11,36.540001,36.66,36.27,36.580002,70200,32.384146
2009-12-14,36.939999,36.98,36.369999,36.540001,166200,32.348734
2009-12-15,36.349998,36.860001,36.25,36.66,214000,32.454968
2009-12-16,36.830002,36.830002,36.48,36.75,133700,32.534645
2009-12-17,36.419998,36.439999,36.07,36.209999,115900,32.056584
2009-12-18,36.41,36.41,35.84,35.93,260600,31.808702
2009-12-21,36.150002,36.43,36.0,36.189999,233800,32.038878
2009-12-22,36.18,36.439999,36.18,36.299999,170100,32.136261
2009-12-23,36.330002,36.439999,35.959999,36.169998,190000,32.021171
2009-12-24,36.299999,36.419998,35.970001,36.369999,86000,32.198231
2009-12-28,36.419998,36.52,36.25,36.389999,113100,32.215938
2009-12-29,36.349998,36.439999,36.130001,36.360001,159100,32.18938
2009-12-30,36.209999,36.400002,36.209999,36.32,97300,32.153967
2009-12-31,36.220001,36.240002,35.740002,35.740002,192000,31.640497
2010-01-04,35.889999,36.240002,35.889999,36.240002,250200,32.083145
2010-01-05,36.27,36.310001,36.040001,36.200001,150300,32.047733
2010-01-06,36.279999,36.849998,36.169998,36.75,400900,32.534645
2010-01-07,36.68,36.880001,36.580002,36.75,126000,32.534645
2010-01-08,36.779999,36.889999,36.509998,36.779999,79800,32.561203
2010-01-11,36.84,36.919998,36.619999,36.810001,93800,32.587764
2010-01-12,36.650002,37.009998,36.560001,36.830002,314800,32.60547
2010-01-13,36.830002,36.990002,36.52,36.889999,92200,32.658586
2010-01-14,36.77,36.919998,36.650002,36.779999,48800,32.561203
2010-01-15,36.630001,36.779999,36.07,36.240002,136600,32.083145
2010-01-19,36.110001,36.889999,36.110001,36.889999,124900,32.658586
2010-01-20,36.630001,36.630001,36.130001,36.419998,93600,32.242496
2010-01-21,36.5,36.529999,35.93,36.07,88800,31.932643
2010-01-22,36.169998,36.560001,35.990002,36.060001,230500,31.923792
2010-01-25,36.220001,36.369999,36.009998,36.060001,113500,31.923792
2010-01-26,36.02,36.59,35.860001,36.0,149000,31.870673
2010-01-27,35.869999,36.299999,35.740002,36.209999,135900,32.056584
2010-01-28,36.27,36.419998,35.810001,35.919998,139600,31.799847
2010-01-29,35.919998,36.380001,35.48,35.48,191000,31.410318
2010-02-01,35.41,35.68,35.32,35.560001,120400,31.614802
2010-02-02,35.549999,36.18,35.43,36.080002,128900,32.077111
2010-02-03,36.02,36.310001,35.830002,36.0,127900,32.005985
2010-02-04,35.740002,35.889999,35.080002,35.099998,103300,31.205834
2010-02-05,35.130001,35.16,34.459999,35.029999,288600,31.1436
2010-02-08,35.029999,35.41,34.869999,35.150002,123000,31.250289
2010-02-09,35.41,35.599998,35.02,35.419998,98700,31.490331
2010-02-10,35.290001,35.450001,35.0,35.080002,480800,31.188056
2010-02-11,36.150002,37.919998,36.0,37.900002,734700,33.695191
2010-02-12,37.880001,38.490002,37.759998,38.040001,498700,33.819658
2010-02-16,38.400002,38.41,37.450001,37.77,283900,33.579613
2010-02-17,37.75,38.040001,37.240002,37.459999,445400,33.304004
2010-02-18,37.52,38.009998,37.5,37.900002,185400,33.695191
2010-02-19,37.77,38.18,37.700001,38.119999,153400,33.890781
2010-02-22,38.34,38.459999,38.040001,38.220001,115000,33.979688
2010-02-23,38.25,38.32,37.970001,38.060001,216400,33.83744
2010-02-24,38.209999,38.52,38.209999,38.450001,129000,34.184171
2010-02-25,38.119999,38.369999,37.560001,38.360001,131000,34.104155
2010-02-26,38.5,38.650002,38.040001,38.529999,184000,34.255293
2010-03-01,38.560001,39.009998,38.34,39.009998,128300,34.682039
2010-03-02,38.950001,39.369999,38.919998,39.310001,216900,34.948758
2010-03-03,39.380001,39.82,39.380001,39.639999,215300,35.242145
2010-03-04,39.59,39.740002,39.490002,39.639999,120300,35.242145
2010-03-05,39.93,40.369999,39.799999,40.349998,113500,35.873373
2010-03-08,40.299999,40.540001,40.18,40.459999,428800,35.97117
2010-03-09,40.200001,40.439999,40.040001,40.18,206200,35.722236
2010-03-10,40.259998,40.369999,40.119999,40.290001,275800,35.820032
2010-03-11,40.23,40.419998,40.0,40.360001,143700,35.882266
2010-03-12,40.529999,40.830002,40.169998,40.400002,214600,35.917829
2010-03-15,40.389999,40.5,39.720001,40.0,151700,35.562205
2010-03-16,40.0,40.380001,39.970001,40.34,162700,35.864484
2010-03-17,40.599998,40.849998,40.360001,40.5,130400,36.006733
2010-03-18,40.5,40.720001,40.189999,40.23,120200,35.766688
2010-03-19,39.810001,40.52,39.689999,39.810001,328200,35.393286
2010-03-22,39.509998,39.939999,39.509998,39.689999,168500,35.286597
2010-03-23,39.799999,40.0,39.41,39.950001,179800,35.517753
2010-03-24,39.889999,39.889999,39.139999,39.150002,154100,34.80651
2010-03-25,39.57,39.57,38.790001,38.84,249400,34.530901
2010-03-26,38.970001,39.23,38.82,39.119999,156800,34.779836
2010-03-29,39.169998,39.57,39.029999,39.57,84000,35.179911
2010-03-30,39.389999,39.84,39.310001,39.740002,95500,35.331052
2010-03-31,39.73,39.82,39.330002,39.349998,116000,34.984318
2010-04-01,38.860001,39.689999,38.630001,39.5,124000,35.117678
2010-04-05,39.529999,39.669998,39.220001,39.66,109700,35.259926
2010-04-06,39.459999,39.799999,39.32,39.740002,165500,35.331052
2010-04-07,39.48,39.990002,39.459999,39.900002,147200,35.473301
2010-04-08,39.91,40.310001,39.639999,40.189999,139700,35.731125
2010-04-09,40.349998,40.93,40.009998,40.919998,172700,36.380134
2010-04-12,41.0,41.150002,40.810001,41.009998,170900,36.46015
2010-04-13,40.919998,41.25,40.799999,41.150002,244000,36.58462
2010-04-14,41.369999,42.07,41.110001,41.779999,274700,37.144722
2010-04-15,41.610001,42.470001,41.57,42.349998,279400,37.651484
2010-04-16,43.07,44.360001,42.290001,42.849998,565400,38.096011
2010-04-19,42.639999,43.189999,42.25,42.919998,233200,38.158245
2010-04-20,42.889999,43.009998,42.57,42.779999,227600,38.033777
2010-04-21,42.68,43.07,42.68,42.900002,165700,38.140467
2010-04-22,42.560001,43.169998,42.41,43.099998,135200,38.318275
2010-04-23,43.25,43.349998,43.049999,43.240002,117000,38.442745
2010-04-26,43.27,43.290001,42.5,43.099998,162400,38.451663
2010-04-27,42.889999,43.240002,42.599998,42.700001,247800,38.094805
2010-04-28,42.98,43.080002,42.709999,42.950001,254700,38.317843
2010-04-29,43.25,44.18,43.080002,43.720001,308100,39.004798
2010-04-30,43.869999,44.169998,43.029999,43.040001,299900,38.398136
2010-05-03,43.290001,44.119999,43.150002,43.669998,298000,38.960188
2010-05-04,43.200001,43.619999,42.950001,43.52,269000,38.826368
2010-05-05,43.509998,43.57,42.419998,42.5,273900,37.916374
2010-05-06,42.139999,42.709999,39.650002,41.360001,279400,36.899324
2010-05-07,41.23,41.48,40.259998,40.34,305100,35.989331
2010-05-10,41.610001,42.189999,41.540001,42.16,211000,37.613043
2010-05-11,41.720001,42.52,41.709999,42.189999,145400,37.639807
2010-05-12,42.360001,42.84,42.139999,42.68,180100,38.076962
2010-05-13,42.450001,42.779999,41.990002,42.27,281900,37.71118
2010-05-14,42.099998,42.099998,40.619999,40.810001,364800,36.408642
2010-05-17,40.869999,41.349998,40.200001,41.23,211500,36.783343
2010-05-18,41.599998,41.810001,40.27,40.32,324200,35.971487
2010-05-19,40.32,40.599998,39.790001,40.259998,200700,35.917957
2010-05-20,39.48,39.790001,38.740002,38.900002,293100,34.704636
2010-05-21,38.650002,38.970001,37.939999,38.709999,356300,34.535125
2010-05-24,38.560001,39.220001,38.419998,38.57,135400,34.410225
2010-05-25,37.610001,38.310001,37.34,38.23,157500,34.106894
2010-05-26,38.380001,38.98,38.139999,38.57,308000,34.410225
2010-05-27,39.450001,39.959999,39.290001,39.950001,266400,35.641393
2010-05-28,39.759998,40.130001,39.41,39.860001,297000,35.561099
2010-06-01,39.720001,40.139999,39.040001,39.060001,167600,34.84738
2010-06-02,39.16,39.860001,38.869999,39.849998,322200,35.552176
2010-06-03,39.720001,39.990002,39.400002,39.790001,184600,35.498649
2010-06-04,38.950001,39.68,38.310001,38.459999,300600,34.312088
2010-06-07,38.560001,38.740002,37.970001,38.02,152900,33.919543
2010-06-08,37.84,38.0,37.41,38.0,184300,33.901699
2010-06-09,38.0,38.27,37.450001,37.619999,215700,33.562681
2010-06-10,38.110001,38.630001,38.110001,38.599998,128400,34.436988
2010-06-11,38.290001,39.16,38.259998,39.130001,112400,34.90983
2010-06-14,39.360001,39.740002,38.880001,38.990002,142800,34.784929
2010-06-15,39.029999,40.220001,38.950001,40.16,190500,35.828743
2010-06-16,40.110001,40.73,40.0,40.650002,212700,36.265898
2010-06-17,40.900002,40.900002,40.18,40.490002,111100,36.123154
2010-06-18,40.450001,40.689999,40.310001,40.52,171600,36.149918
2010-06-21,40.860001,41.119999,39.889999,40.099998,86200,35.775213
2010-06-22,40.110001,40.25,38.959999,39.0,142300,34.793849
2010-06-23,39.080002,39.220001,38.310001,38.59,158200,34.428068
2010-06-24,38.369999,38.93,38.220001,38.380001,202000,34.240717
2010-06-25,38.470001,38.82,38.0,38.740002,327500,34.561892
2010-06-28,38.900002,39.5,38.48,39.240002,182200,35.007967
2010-06-29,38.799999,38.799999,37.959999,38.209999,176700,34.08905
2010-06-30,38.27,38.5,37.720001,37.82,176700,33.741112
2010-07-01,37.810001,37.880001,36.91,37.619999,208000,33.562681
2010-07-02,37.799999,38.240002,37.490002,38.029999,182900,33.928463
2010-07-06,38.349998,38.470001,37.169998,37.34,174100,33.312881
2010-07-07,37.509998,38.540001,37.48,38.509998,154200,34.356694
2010-07-08,38.939999,39.110001,38.560001,39.040001,100600,34.829536
2010-07-09,39.110001,39.380001,39.060001,39.23,81400,34.999043
2010-07-12,39.23,39.32,38.810001,39.09,92000,34.874143
2010-07-13,39.389999,40.889999,39.389999,40.75,202900,36.355112
2010-07-14,40.700001,40.830002,40.209999,40.68,133000,36.292662
2010-07-15,40.68,40.759998,39.950001,40.66,92300,36.274818
2010-07-16,40.5,40.5,39.740002,39.830002,157200,35.534336
2010-07-19,39.830002,40.060001,39.419998,39.720001,164600,35.436198
2010-07-20,39.299999,40.330002,39.18,40.259998,144900,35.917957
2010-07-21,40.59,40.98,39.950001,40.240002,236500,35.900117
2010-07-22,40.900002,42.099998,40.860001,42.040001,282700,37.505986
2010-07-23,42.040001,42.84,41.790001,42.700001,170700,38.094805
2010-07-26,42.91,43.470001,42.720001,43.470001,153700,38.781761
2010-07-27,43.599998,43.82,42.93,43.32,239800,38.647937
2010-07-28,43.389999,43.540001,43.119999,43.240002,161600,38.576567
2010-07-29,43.240002,43.619999,42.599998,42.990002,173700,38.353529
2010-07-30,42.32,43.279999,42.32,43.07,292700,38.586462
2010-08-02,43.779999,43.799999,43.169998,43.529999,138300,38.998576
2010-08-03,43.470001,43.849998,43.389999,43.439999,198600,38.917944
2010-08-04,43.689999,43.790001,43.369999,43.599998,236100,39.061288
2010-08-05,43.369999,43.849998,43.349998,43.650002,71000,39.106086
2010-08-06,43.279999,44.049999,43.099998,43.77,196900,39.213593
2010-08-09,44.0,44.0,43.549999,43.77,202100,39.213593
2010-08-10,43.349998,43.59,42.919998,43.18,157200,38.685012
2010-08-11,42.470001,42.490002,41.619999,41.869999,175400,37.51138
2010-08-12,41.209999,42.18,41.099998,41.98,135100,37.60993
2010-08-13,41.77,42.220001,41.77,41.849998,131000,37.493461
2010-08-16,41.689999,42.009998,41.580002,41.869999,86700,37.51138
2010-08-17,42.240002,43.099998,42.16,42.639999,99100,38.201224
2010-08-18,42.639999,43.009998,42.389999,42.549999,75800,38.120593
2010-08-19,42.450001,42.5,41.509998,41.900002,138600,37.538259
2010-08-20,41.66,42.07,41.400002,42.060001,122600,37.681603
2010-08-23,42.360001,42.360001,41.540001,41.669998,115500,37.332199
2010-08-24,41.150002,41.34,40.860001,40.990002,128100,36.722989
2010-08-25,40.66,41.169998,40.310001,41.07,114900,36.79466
2010-08-26,41.290001,41.490002,40.849998,40.950001,76800,36.687153
2010-08-27,41.209999,42.099998,40.700001,42.009998,124800,37.636806
2010-08-30,41.889999,41.990002,40.990002,40.990002,93200,36.722989
2010-08-31,40.950001,41.75,40.75,41.650002,161200,37.314284
2010-09-01,42.32,42.77,41.93,42.759998,201100,38.308731
2010-09-02,42.830002,43.25,42.689999,43.209999,88400,38.711888
2010-09-03,43.599998,43.939999,43.490002,43.849998,84700,39.285264
2010-09-07,43.779999,43.869999,43.349998,43.580002,86800,39.043373
2010-09-08,43.700001,44.09,43.68,43.869999,87700,39.303182
2010-09-09,44.470001,44.549999,43.869999,43.98,98600,39.401732
2010-09-10,44.200001,44.240002,43.889999,44.009998,79600,39.428608
2010-09-13,44.380001,44.959999,44.380001,44.68,110800,40.028863
2010-09-14,44.779999,45.189999,44.57,44.959999,207500,40.279715
2010-09-15,44.970001,45.75,44.560001,45.720001,294400,40.960601
2010-09-16,45.650002,46.02,45.450001,45.650002,361900,40.897889
2010-09-17,45.779999,45.950001,45.209999,45.27,265600,40.557445
2010-09-20,45.349998,45.66,45.099998,45.290001,154000,40.575364
2010-09-21,45.290001,45.389999,44.549999,44.689999,183600,40.037821
2010-09-22,44.689999,45.0,44.439999,44.450001,111400,39.822807
2010-09-23,44.279999,44.779999,43.970001,44.139999,64300,39.545076
2010-09-24,44.740002,44.950001,44.419998,44.830002,99000,40.16325
2010-09-27,44.759998,44.950001,44.419998,44.599998,88900,39.95719
2010-09-28,44.77,45.580002,44.209999,45.43,112200,40.700789
2010-09-29,45.34,45.91,45.279999,45.560001,131200,40.817257
2010-09-30,45.889999,46.549999,45.540001,45.669998,223700,40.915804
2010-10-01,46.09,46.09,44.830002,45.279999,169600,40.566403
2010-10-04,45.290001,45.650002,44.900002,45.389999,169600,40.664952
2010-10-05,45.810001,46.75,45.810001,46.439999,136900,41.605648
2010-10-06,46.259998,46.470001,46.130001,46.41,121500,41.578772
2010-10-07,46.68,46.720001,45.970001,46.16,73500,41.354797
2010-10-08,46.279999,46.57,46.119999,46.439999,94400,41.605648
2010-10-11,46.389999,47.040001,46.389999,46.740002,103900,41.874421
2010-10-12,46.77,46.849998,46.16,46.689999,87600,41.829623
2010-10-13,47.0,47.240002,46.639999,47.07,144400,42.170067
2010-10-14,47.110001,47.310001,46.720001,46.990002,97800,42.098396
2010-10-15,47.310001,47.450001,46.580002,46.759998,159800,41.892336
2010-10-18,46.939999,47.139999,46.57,46.830002,154800,41.955052
2010-10-19,46.369999,46.59,46.009998,46.380001,176600,41.551896
2010-10-20,46.669998,47.610001,46.599998,47.389999,120000,42.456755
2010-10-21,45.099998,45.48,44.400002,45.0,520200,40.315551
2010-10-22,44.98,45.349998,44.740002,45.049999,189100,40.360346
2010-10-25,45.200001,45.709999,45.130001,45.25,149200,40.539527
2010-10-26,44.93,45.41,44.799999,45.139999,260400,40.440977
2010-10-27,44.84,45.200001,44.700001,45.169998,145400,40.467853
2010-10-28,45.52,45.68,44.900002,45.23,140500,40.521608
2010-10-29,45.23,45.439999,44.830002,44.880001,181600,40.208044
2010-11-01,45.029999,45.23,44.59,44.810001,151100,40.306992
2010-11-02,45.139999,45.459999,44.830002,44.91,149300,40.396942
2010-11-03,44.919998,45.169998,44.540001,45.060001,143200,40.531869
2010-11-04,45.68,46.27,45.32,46.220001,126100,41.575299
2010-11-05,46.299999,46.5,46.25,46.419998,113300,41.755198
2010-11-08,46.080002,46.529999,46.049999,46.34,124900,41.683239
2010-11-09,46.52,46.639999,46.139999,46.290001,144800,41.638265
2010-11-10,46.299999,46.919998,46.029999,46.84,157900,42.132994
2010-11-11,46.400002,46.740002,46.259998,46.619999,117500,41.935101
2010-11-12,46.310001,46.549999,45.98,46.009998,123400,41.3864
2010-11-15,46.209999,46.549999,45.720001,46.029999,66300,41.404391
2010-11-16,45.619999,45.939999,45.07,45.290001,157800,40.738756
2010-11-17,45.310001,45.5,45.220001,45.349998,84500,40.792724
2010-11-18,45.810001,46.040001,45.360001,45.470001,189300,40.900668
2010-11-19,45.360001,45.68,45.259998,45.580002,83300,40.999614
2010-11-22,45.299999,46.169998,44.950001,46.02,118900,41.395397
2010-11-23,45.610001,45.610001,45.130001,45.450001,93700,40.882677
2010-11-24,45.790001,46.619999,45.599998,46.470001,97300,41.800177
2010-11-26,46.150002,46.669998,46.130001,46.349998,35700,41.692233
2010-11-29,46.029999,46.110001,45.189999,45.889999,168000,41.27846
2010-11-30,45.669998,46.0,45.470001,45.669998,216300,41.080567
2010-12-01,46.450001,47.130001,46.419998,46.84,118200,42.132994
2010-12-02,46.98,47.630001,46.919998,47.509998,103000,42.735663
2010-12-03,47.549999,48.419998,47.459999,48.220001,126100,43.374317
2010-12-06,48.16,48.369999,47.439999,47.52,115100,42.74466
2010-12-07,47.759998,47.919998,47.18,47.279999,101300,42.528777
2010-12-08,47.41,47.5,46.400002,46.700001,486500,42.007063
2010-12-09,47.02,47.02,46.360001,46.75,270000,42.052038
2010-12-10,46.82,47.07,46.650002,47.060001,129500,42.330887
2010-12-13,47.169998,47.200001,46.82,46.889999,119900,42.177969
2010-12-14,47.0,47.02,46.59,46.759998,234600,42.061032
2010-12-15,46.66,47.099998,46.630001,46.66,227200,41.971082
2010-12-16,46.639999,47.439999,46.639999,47.41,113600,42.645714
2010-12-17,47.48,47.509998,46.900002,47.110001,235800,42.375862
2010-12-20,47.16,47.450001,46.990002,47.349998,89900,42.591742
2010-12-21,47.470001,47.57,47.290001,47.43,129100,42.663704
2010-12-22,47.689999,48.450001,47.5,47.959999,158800,43.140443
2010-12-23,47.959999,48.119999,47.77,47.869999,120600,43.059487
2010-12-27,47.709999,48.310001,47.639999,48.07,70700,43.239389
2010-12-28,48.169998,48.349998,47.740002,48.169998,110900,43.329339
2010-12-29,48.23,48.360001,47.98,48.0,73400,43.176424
2010-12-30,47.900002,48.139999,47.84,47.84,58200,43.032503
2010-12-31,47.720001,47.82,47.41,47.57,170100,42.789635
